# b"Cross sections for OH+\nConverted from earlier Leiden database cross sections by Alan Heays 2016-02-24\nPhotodissociation source: OH+ P.D. CF. Saxon & Liu '86\nLines represented with gaussian of width 1.0 nm FWHM\nwavelength: (nm)\nphotoabsorption:    cross section (cm2)\nphotodissociation:  cross section (cm2)"
# 
# wavelength   photoabsorption photodissociation
  91.2000000       2.77468e-18       2.77468e-18
  91.3000000       2.74935e-18       2.74935e-18
  91.4000000       2.71558e-18       2.71558e-18
  91.5000000       2.68182e-18       2.68182e-18
  91.6000000       2.64805e-18       2.64805e-18
  91.7000000       2.61429e-18       2.61429e-18
  91.8000000       2.58052e-18       2.58052e-18
  91.9000000       2.54675e-18       2.54675e-18
  92.0000000       2.51299e-18       2.51299e-18
  92.1000000       2.47922e-18       2.47922e-18
  92.2000000       2.44545e-18       2.44545e-18
  92.3000000       2.41169e-18       2.41169e-18
  92.4000000       2.37792e-18       2.37792e-18
  92.5000000       2.34416e-18       2.34416e-18
  92.6000000       2.31039e-18       2.31039e-18
  92.7000000       2.27662e-18       2.27662e-18
  92.8000000       2.24286e-18       2.24286e-18
  92.9000000       2.20909e-18       2.20909e-18
  93.0000000       2.17532e-18       2.17532e-18
  93.1000000       2.14156e-18       2.14156e-18
  93.2000000       2.10779e-18       2.10779e-18
  93.3000000       2.07403e-18       2.07403e-18
  93.4000000       2.04026e-18       2.04026e-18
  93.5000000       2.00649e-18       2.00649e-18
  93.6000000       1.97273e-18       1.97273e-18
  93.7000000       1.93896e-18       1.93896e-18
  93.8000000       1.90519e-18       1.90519e-18
  93.9000000       1.87143e-18       1.87143e-18
  94.0000000       1.83766e-18       1.83766e-18
  94.1000000       1.80390e-18       1.80390e-18
  94.2000000       1.77013e-18       1.77013e-18
  94.3000000       1.73636e-18       1.73636e-18
  94.4000000       1.70260e-18       1.70260e-18
  94.5000000       1.66883e-18       1.66883e-18
  94.6000000       1.63506e-18       1.63506e-18
  94.7000000       1.60130e-18       1.60130e-18
  94.8000000       1.56753e-18       1.56753e-18
  94.9000000       1.53377e-18       1.53377e-18
  95.0000000       1.50222e-18       1.50222e-18
  95.1000000       1.48400e-18       1.48400e-18
  95.2000000       1.46800e-18       1.46800e-18
  95.3000000       1.45200e-18       1.45200e-18
  95.4000000       1.43600e-18       1.43600e-18
  95.5000000       1.42000e-18       1.42000e-18
  95.6000000       1.40400e-18       1.40400e-18
  95.7000000       1.38800e-18       1.38800e-18
  95.8000000       1.37200e-18       1.37200e-18
  95.9000000       1.35600e-18       1.35600e-18
  96.0000000       1.34000e-18       1.34000e-18
  96.1000000       1.32400e-18       1.32400e-18
  96.2000000       1.30800e-18       1.30800e-18
  96.3000000       1.29200e-18       1.29200e-18
  96.4000000       1.27600e-18       1.27600e-18
  96.5000000       1.26000e-18       1.26000e-18
  96.6000000       1.24400e-18       1.24400e-18
  96.7000000       1.22800e-18       1.22800e-18
  96.8000000       1.21200e-18       1.21200e-18
  96.9000000       1.19600e-18       1.19600e-18
  97.0000000       1.18000e-18       1.18000e-18
  97.1000000       1.16400e-18       1.16400e-18
  97.2000000       1.14800e-18       1.14800e-18
  97.3000000       1.13200e-18       1.13200e-18
  97.4000000       1.11600e-18       1.11600e-18
  97.5000000       1.10000e-18       1.10000e-18
  97.6000000       1.08400e-18       1.08400e-18
  97.7000000       1.06800e-18       1.06800e-18
  97.8000000       1.05200e-18       1.05200e-18
  97.9000000       1.03600e-18       1.03600e-18
  98.0000000       1.02000e-18       1.02000e-18
  98.1000000       1.00400e-18       1.00400e-18
  98.2000000       9.88000e-19       9.88000e-19
  98.3000000       9.72000e-19       9.72000e-19
  98.4000000       9.56000e-19       9.56000e-19
  98.5000000       9.40000e-19       9.40000e-19
  98.6000000       9.24000e-19       9.24000e-19
  98.7000000       9.08000e-19       9.08000e-19
  98.8000000       8.92000e-19       8.92000e-19
  98.9000000       8.76000e-19       8.76000e-19
  99.0000000       8.60000e-19       8.60000e-19
  99.1000000       8.44000e-19       8.44000e-19
  99.2000000       8.28000e-19       8.28000e-19
  99.3000000       8.12000e-19       8.12000e-19
  99.4000000       7.96000e-19       7.96000e-19
  99.5000000       7.80000e-19       7.80000e-19
  99.6000000       7.64000e-19       7.64000e-19
  99.7000000       7.48000e-19       7.48000e-19
  99.8000000       7.32000e-19       7.32000e-19
  99.9000000       7.16000e-19       7.16000e-19
 100.0000000       7.01000e-19       7.01000e-19
 100.1000000       6.92000e-19       6.92000e-19
 100.2000000       6.84000e-19       6.84000e-19
 100.3000000       6.76000e-19       6.76000e-19
 100.4000000       6.68000e-19       6.68000e-19
 100.5000000       6.60000e-19       6.60000e-19
 100.6000000       6.52000e-19       6.52000e-19
 100.7000000       6.44000e-19       6.44000e-19
 100.8000000       6.36000e-19       6.36000e-19
 100.9000000       6.28000e-19       6.28000e-19
 101.0000000       6.20000e-19       6.20000e-19
 101.1000000       6.12000e-19       6.12000e-19
 101.2000000       6.04000e-19       6.04000e-19
 101.3000000       5.96000e-19       5.96000e-19
 101.4000000       5.88000e-19       5.88000e-19
 101.5000000       5.80000e-19       5.80000e-19
 101.6000000       5.72000e-19       5.72000e-19
 101.7000000       5.64000e-19       5.64000e-19
 101.8000000       5.56000e-19       5.56000e-19
 101.9000000       5.48000e-19       5.48000e-19
 102.0000000       5.40000e-19       5.40000e-19
 102.1000000       5.32000e-19       5.32000e-19
 102.2000000       5.24000e-19       5.24000e-19
 102.3000000       5.16000e-19       5.16000e-19
 102.4000000       5.08000e-19       5.08000e-19
 102.5000000       5.00000e-19       5.00000e-19
 102.6000000       4.92000e-19       4.92000e-19
 102.7000000       4.84000e-19       4.84000e-19
 102.8000000       4.76000e-19       4.76000e-19
 102.9000000       4.68000e-19       4.68000e-19
 103.0000000       4.60000e-19       4.60000e-19
 103.1000000       4.52000e-19       4.52000e-19
 103.2000000       4.44000e-19       4.44000e-19
 103.3000000       4.36000e-19       4.36000e-19
 103.4000000       4.28000e-19       4.28000e-19
 103.5000000       4.20000e-19       4.20000e-19
 103.6000000       4.12000e-19       4.12000e-19
 103.7000000       4.04000e-19       4.04000e-19
 103.8000000       3.96000e-19       3.96000e-19
 103.9000000       3.88000e-19       3.88000e-19
 104.0000000       3.80000e-19       3.80000e-19
 104.1000000       3.72000e-19       3.72000e-19
 104.2000000       3.64000e-19       3.64000e-19
 104.3000000       3.56000e-19       3.56000e-19
 104.4000000       3.48000e-19       3.48000e-19
 104.5000000       3.40000e-19       3.40000e-19
 104.6000000       3.32000e-19       3.32000e-19
 104.7000000       3.24000e-19       3.24000e-19
 104.8000000       3.16000e-19       3.16000e-19
 104.9000000       3.08000e-19       3.08000e-19
 105.0000000       3.00750e-19       3.00750e-19
 105.1000000       2.98000e-19       2.98000e-19
 105.2000000       2.96000e-19       2.96000e-19
 105.3000000       2.94000e-19       2.94000e-19
 105.4000000       2.92000e-19       2.92000e-19
 105.5000000       2.90000e-19       2.90000e-19
 105.6000000       2.88000e-19       2.88000e-19
 105.7000000       2.86000e-19       2.86000e-19
 105.8000000       2.84000e-19       2.84000e-19
 105.9000000       2.82000e-19       2.82000e-19
 106.0000000       2.80000e-19       2.80000e-19
 106.1000000       2.78000e-19       2.78000e-19
 106.2000000       2.76000e-19       2.76000e-19
 106.3000000       2.74000e-19       2.74000e-19
 106.4000000       2.72000e-19       2.72000e-19
 106.5000000       2.70000e-19       2.70000e-19
 106.6000000       2.68000e-19       2.68000e-19
 106.7000000       2.66000e-19       2.66000e-19
 106.8000000       2.64000e-19       2.64000e-19
 106.9000000       2.62000e-19       2.62000e-19
 107.0000000       2.60000e-19       2.60000e-19
 107.1000000       2.58000e-19       2.58000e-19
 107.2000000       2.56000e-19       2.56000e-19
 107.3000000       2.54000e-19       2.54000e-19
 107.4000000       2.52000e-19       2.52000e-19
 107.5000000       2.50000e-19       2.50000e-19
 107.6000000       2.48000e-19       2.48000e-19
 107.7000000       2.46000e-19       2.46000e-19
 107.8000000       2.44000e-19       2.44000e-19
 107.9000000       2.42000e-19       2.42000e-19
 108.0000000       2.40000e-19       2.40000e-19
 108.1000000       2.38000e-19       2.38000e-19
 108.2000000       2.36000e-19       2.36000e-19
 108.3000000       2.34000e-19       2.34000e-19
 108.4000000       2.32000e-19       2.32000e-19
 108.5000000       2.30000e-19       2.30000e-19
 108.6000000       2.28000e-19       2.28000e-19
 108.7000000       2.26000e-19       2.26000e-19
 108.8000000       2.24000e-19       2.24000e-19
 108.9000000       2.22000e-19       2.22000e-19
 109.0000000       2.20000e-19       2.20000e-19
 109.1000000       2.18000e-19       2.18000e-19
 109.2000000       2.16000e-19       2.16000e-19
 109.3000000       2.14000e-19       2.14000e-19
 109.4000000       2.12000e-19       2.12000e-19
 109.5000000       2.10000e-19       2.10000e-19
 109.6000000       2.08000e-19       2.08000e-19
 109.7000000       2.06000e-19       2.06000e-19
 109.8000000       2.04000e-19       2.04000e-19
 109.9000000       2.02000e-19       2.02000e-19
 110.0000000       1.97750e-19       1.97750e-19
 110.1000000       1.80000e-19       1.80000e-19
 110.2000000       1.60000e-19       1.60000e-19
 110.3000000       1.40000e-19       1.40000e-19
 110.4000000       1.20000e-19       1.20000e-19
 110.5000000       1.00000e-19       1.00000e-19
 110.6000000       8.00000e-20       8.00000e-20
 110.7000000       6.00000e-20       6.00000e-20
 110.8000000       4.00000e-20       4.00000e-20
 110.9000000       2.00000e-20       2.00000e-20
 111.0000000       2.50000e-21       2.50000e-21
 111.1000000       3.20000e-27       3.20000e-27
 111.2000000       6.40000e-27       6.40000e-27
 111.3000000       9.60001e-27       9.60001e-27
 111.4000000       1.28000e-26       1.28000e-26
 111.5000000       1.60000e-26       1.60000e-26
 111.6000000       1.92000e-26       1.92000e-26
 111.7000000       2.24000e-26       2.24000e-26
 111.8000000       2.56000e-26       2.56000e-26
 111.9000000       2.88000e-26       2.88000e-26
 112.0000000       3.20000e-26       3.20000e-26
 112.1000000       3.52000e-26       3.52000e-26
 112.2000000       3.84000e-26       3.84000e-26
 112.3000000       4.16000e-26       4.16000e-26
 112.4000000       4.48000e-26       4.48000e-26
 112.5000000       4.80000e-26       4.80000e-26
 112.6000000       5.12000e-26       5.12000e-26
 112.7000000       5.44000e-26       5.44000e-26
 112.8000000       5.76000e-26       5.76000e-26
 112.9000000       6.08000e-26       6.08000e-26
 113.0000000       6.40000e-26       6.40000e-26
 113.1000000       6.72000e-26       6.72000e-26
 113.2000000       7.04000e-26       7.04000e-26
 113.3000000       7.36000e-26       7.36000e-26
 113.4000000       7.68000e-26       7.68000e-26
 113.5000000       8.00000e-26       8.00000e-26
 113.6000000       8.32000e-26       8.32000e-26
 113.7000000       8.64000e-26       8.64000e-26
 113.8000000       8.96000e-26       8.96000e-26
 113.9000000       9.28000e-26       9.28000e-26
 114.0000000       9.60000e-26       9.60000e-26
 114.1000000       9.92000e-26       9.92000e-26
 114.2000000       1.02400e-25       1.02400e-25
 114.3000000       1.05600e-25       1.05600e-25
 114.4000000       1.08800e-25       1.08800e-25
 114.5000000       1.12000e-25       1.12000e-25
 114.6000000       1.15200e-25       1.15200e-25
 114.7000000       1.18400e-25       1.18400e-25
 114.8000000       1.21600e-25       1.21600e-25
 114.9000000       1.24800e-25       1.24800e-25
 115.0000000       1.28000e-25       1.28000e-25
 115.1000000       1.31200e-25       1.31200e-25
 115.2000000       1.34400e-25       1.34400e-25
 115.3000000       1.37600e-25       1.37600e-25
 115.4000000       1.40800e-25       1.40800e-25
 115.5000000       1.44000e-25       1.44000e-25
 115.6000000       1.47200e-25       1.47200e-25
 115.7000000       1.50400e-25       1.50400e-25
 115.8000000       1.53600e-25       1.53600e-25
 115.9000000       1.56800e-25       1.56800e-25
 116.0000000       1.60000e-25       1.60000e-25
 116.1000000       1.63200e-25       1.63200e-25
 116.2000000       1.66400e-25       1.66400e-25
 116.3000000       1.69600e-25       1.69600e-25
 116.4000000       1.72800e-25       1.72800e-25
 116.5000000       1.76000e-25       1.76000e-25
 116.6000000       1.79200e-25       1.79200e-25
 116.7000000       1.82400e-25       1.82400e-25
 116.8000000       1.85600e-25       1.85600e-25
 116.9000000       1.88800e-25       1.88800e-25
 117.0000000       1.92000e-25       1.92000e-25
 117.1000000       1.95200e-25       1.95200e-25
 117.2000000       1.98400e-25       1.98400e-25
 117.3000000       2.01600e-25       2.01600e-25
 117.4000000       2.04800e-25       2.04800e-25
 117.5000000       2.08000e-25       2.08000e-25
 117.6000000       2.11200e-25       2.11200e-25
 117.7000000       2.14400e-25       2.14400e-25
 117.8000000       2.17600e-25       2.17600e-25
 117.9000000       2.20800e-25       2.20800e-25
 118.0000000       2.24000e-25       2.24000e-25
 118.1000000       2.27200e-25       2.27200e-25
 118.2000000       2.30400e-25       2.30400e-25
 118.3000000       2.33600e-25       2.33600e-25
 118.4000000       2.36800e-25       2.36800e-25
 118.5000000       2.40000e-25       2.40000e-25
 118.6000000       2.43200e-25       2.43200e-25
 118.7000000       2.46400e-25       2.46400e-25
 118.8000000       2.49600e-25       2.49600e-25
 118.9000000       2.52800e-25       2.52800e-25
 119.0000000       2.56000e-25       2.56000e-25
 119.1000000       2.59200e-25       2.59200e-25
 119.2000000       2.62400e-25       2.62400e-25
 119.3000000       2.65600e-25       2.65600e-25
 119.4000000       2.68800e-25       2.68800e-25
 119.5000000       2.72000e-25       2.72000e-25
 119.6000000       2.75200e-25       2.75200e-25
 119.7000000       2.78400e-25       2.78400e-25
 119.8000000       2.81600e-25       2.81600e-25
 119.9000000       2.84800e-25       2.84800e-25
 120.0000000       2.88000e-25       2.88000e-25
 120.1000000       2.91200e-25       2.91200e-25
 120.2000000       2.94400e-25       2.94400e-25
 120.3000000       2.97600e-25       2.97600e-25
 120.4000000       3.00800e-25       3.00800e-25
 120.5000000       3.04000e-25       3.04000e-25
 120.6000000       3.07200e-25       3.07200e-25
 120.7000000       3.10400e-25       3.10400e-25
 120.8000000       3.13600e-25       3.13600e-25
 120.9000000       3.16800e-25       3.16800e-25
 121.0000000       3.20000e-25       3.20000e-25
 121.1000000       3.23200e-25       3.23200e-25
 121.2000000       3.26400e-25       3.26400e-25
 121.3000000       3.29600e-25       3.29600e-25
 121.4000000       3.32800e-25       3.32800e-25
 121.5000000       3.36000e-25       3.36000e-25
 121.6000000       3.39200e-25       3.39200e-25
 121.7000000       3.42400e-25       3.42400e-25
 121.8000000       3.45600e-25       3.45600e-25
 121.9000000       3.48800e-25       3.48800e-25
 122.0000000       3.52000e-25       3.52000e-25
 122.1000000       3.55200e-25       3.55200e-25
 122.2000000       3.58400e-25       3.58400e-25
 122.3000000       3.61600e-25       3.61600e-25
 122.4000000       3.64800e-25       3.64800e-25
 122.5000000       3.68000e-25       3.68000e-25
 122.6000000       3.71200e-25       3.71200e-25
 122.7000000       3.74400e-25       3.74400e-25
 122.8000000       3.77600e-25       3.77600e-25
 122.9000000       3.80800e-25       3.80800e-25
 123.0000000       3.84000e-25       3.84000e-25
 123.1000000       3.87200e-25       3.87200e-25
 123.2000000       3.90400e-25       3.90400e-25
 123.3000000       3.93600e-25       3.93600e-25
 123.4000000       3.96800e-25       3.96800e-25
 123.5000000       4.00000e-25       4.00000e-25
 123.6000000       4.03200e-25       4.03200e-25
 123.7000000       4.06400e-25       4.06400e-25
 123.8000000       4.09600e-25       4.09600e-25
 123.9000000       4.12800e-25       4.12800e-25
 124.0000000       4.16000e-25       4.16000e-25
 124.1000000       4.19200e-25       4.19200e-25
 124.2000000       4.22400e-25       4.22400e-25
 124.3000000       4.25600e-25       4.25600e-25
 124.4000000       4.28800e-25       4.28800e-25
 124.5000000       4.32000e-25       4.32000e-25
 124.6000000       4.35200e-25       4.35200e-25
 124.7000000       4.38400e-25       4.38400e-25
 124.8000000       4.41600e-25       4.41600e-25
 124.9000000       4.44800e-25       4.44800e-25
 125.0000000       4.48000e-25       4.48000e-25
 125.1000000       4.51200e-25       4.51200e-25
 125.2000000       4.54400e-25       4.54400e-25
 125.3000000       4.57600e-25       4.57600e-25
 125.4000000       4.60800e-25       4.60800e-25
 125.5000000       4.64000e-25       4.64000e-25
 125.6000000       4.67200e-25       4.67200e-25
 125.7000000       4.70400e-25       4.70400e-25
 125.8000000       4.73600e-25       4.73600e-25
 125.9000000       4.76800e-25       4.76800e-25
 126.0000000       4.80000e-25       4.80000e-25
 126.1000000       4.83200e-25       4.83200e-25
 126.2000000       4.86400e-25       4.86400e-25
 126.3000000       4.89600e-25       4.89600e-25
 126.4000000       4.92800e-25       4.92800e-25
 126.5000000       4.96000e-25       4.96000e-25
 126.6000000       4.99200e-25       4.99200e-25
 126.7000000       5.02400e-25       5.02400e-25
 126.8000000       5.05600e-25       5.05600e-25
 126.9000000       5.08800e-25       5.08800e-25
 127.0000000       5.12000e-25       5.12000e-25
 127.1000000       5.15200e-25       5.15200e-25
 127.2000000       5.18400e-25       5.18400e-25
 127.3000000       5.21600e-25       5.21600e-25
 127.4000000       5.24800e-25       5.24800e-25
 127.5000000       5.28000e-25       5.28000e-25
 127.6000000       5.31200e-25       5.31200e-25
 127.7000000       5.34400e-25       5.34400e-25
 127.8000000       5.37600e-25       5.37600e-25
 127.9000000       5.40800e-25       5.40800e-25
 128.0000000       5.44000e-25       5.44000e-25
 128.1000000       5.47200e-25       5.47200e-25
 128.2000000       5.50400e-25       5.50400e-25
 128.3000000       5.53600e-25       5.53600e-25
 128.4000000       5.56800e-25       5.56800e-25
 128.5000000       5.60000e-25       5.60000e-25
 128.6000000       5.63200e-25       5.63200e-25
 128.7000000       5.66400e-25       5.66400e-25
 128.8000000       5.69600e-25       5.69600e-25
 128.9000000       5.72800e-25       5.72800e-25
 129.0000000       5.76000e-25       5.76000e-25
 129.1000000       5.79200e-25       5.79200e-25
 129.2000000       5.82400e-25       5.82400e-25
 129.3000000       5.85600e-25       5.85600e-25
 129.4000000       5.88800e-25       5.88800e-25
 129.5000000       5.92000e-25       5.92000e-25
 129.6000000       5.95200e-25       5.95200e-25
 129.7000000       5.98400e-25       5.98400e-25
 129.8000000       6.01600e-25       6.01600e-25
 129.9000000       6.04800e-25       6.04800e-25
 130.0000000       6.08000e-25       6.08000e-25
 130.1000000       6.11200e-25       6.11200e-25
 130.2000000       6.14400e-25       6.14400e-25
 130.3000000       6.17600e-25       6.17600e-25
