# b'Cross sections for H2+\nConverted from earlier Leiden database cross sections by Alan Heays 2016-02-24\nPhotodissociation source: H2+ PHOTODISSOCIATION, V=0 THEORY\nLines represented with gaussian of width 1.0 nm FWHM\nwavelength: (nm)\nphotoabsorption:    cross section (cm2)\nphotodissociation:  cross section (cm2)'
# 
# wavelength   photoabsorption photodissociation
  90.1000000       3.11700e-18       3.11700e-18
  90.2000000       3.13920e-18       3.13920e-18
  90.3000000       3.16880e-18       3.16880e-18
  90.4000000       3.19840e-18       3.19840e-18
  90.5000000       3.22800e-18       3.22800e-18
  90.6000000       3.25760e-18       3.25760e-18
  90.7000000       3.28720e-18       3.28720e-18
  90.8000000       3.31680e-18       3.31680e-18
  90.9000000       3.34640e-18       3.34640e-18
  91.0000000       3.37600e-18       3.37600e-18
  91.1000000       3.40560e-18       3.40560e-18
  91.2000000       3.43520e-18       3.43520e-18
  91.3000000       3.46480e-18       3.46480e-18
  91.4000000       3.49440e-18       3.49440e-18
  91.5000000       3.52400e-18       3.52400e-18
  91.6000000       3.55360e-18       3.55360e-18
  91.7000000       3.58320e-18       3.58320e-18
  91.8000000       3.61280e-18       3.61280e-18
  91.9000000       3.64240e-18       3.64240e-18
  92.0000000       3.67200e-18       3.67200e-18
  92.1000000       3.70160e-18       3.70160e-18
  92.2000000       3.73120e-18       3.73120e-18
  92.3000000       3.76080e-18       3.76080e-18
  92.4000000       3.79040e-18       3.79040e-18
  92.5000000       3.82025e-18       3.82025e-18
  92.6000000       3.85160e-18       3.85160e-18
  92.7000000       3.88320e-18       3.88320e-18
  92.8000000       3.91480e-18       3.91480e-18
  92.9000000       3.94640e-18       3.94640e-18
  93.0000000       3.97800e-18       3.97800e-18
  93.1000000       4.00960e-18       4.00960e-18
  93.2000000       4.04120e-18       4.04120e-18
  93.3000000       4.07280e-18       4.07280e-18
  93.4000000       4.10440e-18       4.10440e-18
  93.5000000       4.13600e-18       4.13600e-18
  93.6000000       4.16760e-18       4.16760e-18
  93.7000000       4.19920e-18       4.19920e-18
  93.8000000       4.23080e-18       4.23080e-18
  93.9000000       4.26240e-18       4.26240e-18
  94.0000000       4.29400e-18       4.29400e-18
  94.1000000       4.32560e-18       4.32560e-18
  94.2000000       4.35720e-18       4.35720e-18
  94.3000000       4.38880e-18       4.38880e-18
  94.4000000       4.42040e-18       4.42040e-18
  94.5000000       4.45200e-18       4.45200e-18
  94.6000000       4.48360e-18       4.48360e-18
  94.7000000       4.51520e-18       4.51520e-18
  94.8000000       4.54680e-18       4.54680e-18
  94.9000000       4.57840e-18       4.57840e-18
  95.0000000       4.60985e-18       4.60985e-18
  95.1000000       4.64040e-18       4.64040e-18
  95.2000000       4.67080e-18       4.67080e-18
  95.3000000       4.70120e-18       4.70120e-18
  95.4000000       4.73160e-18       4.73160e-18
  95.5000000       4.76200e-18       4.76200e-18
  95.6000000       4.79240e-18       4.79240e-18
  95.7000000       4.82280e-18       4.82280e-18
  95.8000000       4.85320e-18       4.85320e-18
  95.9000000       4.88360e-18       4.88360e-18
  96.0000000       4.91400e-18       4.91400e-18
  96.1000000       4.94440e-18       4.94440e-18
  96.2000000       4.97480e-18       4.97480e-18
  96.3000000       5.00520e-18       5.00520e-18
  96.4000000       5.03560e-18       5.03560e-18
  96.5000000       5.06600e-18       5.06600e-18
  96.6000000       5.09640e-18       5.09640e-18
  96.7000000       5.12680e-18       5.12680e-18
  96.8000000       5.15720e-18       5.15720e-18
  96.9000000       5.18760e-18       5.18760e-18
  97.0000000       5.21800e-18       5.21800e-18
  97.1000000       5.24840e-18       5.24840e-18
  97.2000000       5.27880e-18       5.27880e-18
  97.3000000       5.30920e-18       5.30920e-18
  97.4000000       5.33960e-18       5.33960e-18
  97.5000000       5.36965e-18       5.36965e-18
  97.6000000       5.39760e-18       5.39760e-18
  97.7000000       5.42520e-18       5.42520e-18
  97.8000000       5.45280e-18       5.45280e-18
  97.9000000       5.48040e-18       5.48040e-18
  98.0000000       5.50800e-18       5.50800e-18
  98.1000000       5.53560e-18       5.53560e-18
  98.2000000       5.56320e-18       5.56320e-18
  98.3000000       5.59080e-18       5.59080e-18
  98.4000000       5.61840e-18       5.61840e-18
  98.5000000       5.64600e-18       5.64600e-18
  98.6000000       5.67360e-18       5.67360e-18
  98.7000000       5.70120e-18       5.70120e-18
  98.8000000       5.72880e-18       5.72880e-18
  98.9000000       5.75640e-18       5.75640e-18
  99.0000000       5.78400e-18       5.78400e-18
  99.1000000       5.81160e-18       5.81160e-18
  99.2000000       5.83920e-18       5.83920e-18
  99.3000000       5.86680e-18       5.86680e-18
  99.4000000       5.89440e-18       5.89440e-18
  99.5000000       5.92200e-18       5.92200e-18
  99.6000000       5.94960e-18       5.94960e-18
  99.7000000       5.97720e-18       5.97720e-18
  99.8000000       6.00480e-18       6.00480e-18
  99.9000000       6.03240e-18       6.03240e-18
 100.0000000       6.05925e-18       6.05925e-18
 100.1000000       6.08160e-18       6.08160e-18
 100.2000000       6.10320e-18       6.10320e-18
 100.3000000       6.12480e-18       6.12480e-18
 100.4000000       6.14640e-18       6.14640e-18
 100.5000000       6.16800e-18       6.16800e-18
 100.6000000       6.18960e-18       6.18960e-18
 100.7000000       6.21120e-18       6.21120e-18
 100.8000000       6.23280e-18       6.23280e-18
 100.9000000       6.25440e-18       6.25440e-18
 101.0000000       6.27600e-18       6.27600e-18
 101.1000000       6.29760e-18       6.29760e-18
 101.2000000       6.31920e-18       6.31920e-18
 101.3000000       6.34080e-18       6.34080e-18
 101.4000000       6.36240e-18       6.36240e-18
 101.5000000       6.38400e-18       6.38400e-18
 101.6000000       6.40560e-18       6.40560e-18
 101.7000000       6.42720e-18       6.42720e-18
 101.8000000       6.44880e-18       6.44880e-18
 101.9000000       6.47040e-18       6.47040e-18
 102.0000000       6.49200e-18       6.49200e-18
 102.1000000       6.51360e-18       6.51360e-18
 102.2000000       6.53520e-18       6.53520e-18
 102.3000000       6.55680e-18       6.55680e-18
 102.4000000       6.57840e-18       6.57840e-18
 102.5000000       6.60000e-18       6.60000e-18
 102.6000000       6.62160e-18       6.62160e-18
 102.7000000       6.64320e-18       6.64320e-18
 102.8000000       6.66480e-18       6.66480e-18
 102.9000000       6.68640e-18       6.68640e-18
 103.0000000       6.70800e-18       6.70800e-18
 103.1000000       6.72960e-18       6.72960e-18
 103.2000000       6.75120e-18       6.75120e-18
 103.3000000       6.77280e-18       6.77280e-18
 103.4000000       6.79440e-18       6.79440e-18
 103.5000000       6.81600e-18       6.81600e-18
 103.6000000       6.83760e-18       6.83760e-18
 103.7000000       6.85920e-18       6.85920e-18
 103.8000000       6.88080e-18       6.88080e-18
 103.9000000       6.90240e-18       6.90240e-18
 104.0000000       6.92400e-18       6.92400e-18
 104.1000000       6.94560e-18       6.94560e-18
 104.2000000       6.96720e-18       6.96720e-18
 104.3000000       6.98880e-18       6.98880e-18
 104.4000000       7.01040e-18       7.01040e-18
 104.5000000       7.03200e-18       7.03200e-18
 104.6000000       7.05360e-18       7.05360e-18
 104.7000000       7.07520e-18       7.07520e-18
 104.8000000       7.09680e-18       7.09680e-18
 104.9000000       7.11840e-18       7.11840e-18
 105.0000000       7.13847e-18       7.13847e-18
 105.1000000       7.14940e-18       7.14940e-18
 105.2000000       7.15880e-18       7.15880e-18
 105.3000000       7.16820e-18       7.16820e-18
 105.4000000       7.17760e-18       7.17760e-18
 105.5000000       7.18700e-18       7.18700e-18
 105.6000000       7.19640e-18       7.19640e-18
 105.7000000       7.20580e-18       7.20580e-18
 105.8000000       7.21520e-18       7.21520e-18
 105.9000000       7.22460e-18       7.22460e-18
 106.0000000       7.23400e-18       7.23400e-18
 106.1000000       7.24340e-18       7.24340e-18
 106.2000000       7.25280e-18       7.25280e-18
 106.3000000       7.26220e-18       7.26220e-18
 106.4000000       7.27160e-18       7.27160e-18
 106.5000000       7.28100e-18       7.28100e-18
 106.6000000       7.29040e-18       7.29040e-18
 106.7000000       7.29980e-18       7.29980e-18
 106.8000000       7.30920e-18       7.30920e-18
 106.9000000       7.31860e-18       7.31860e-18
 107.0000000       7.32800e-18       7.32800e-18
 107.1000000       7.33740e-18       7.33740e-18
 107.2000000       7.34680e-18       7.34680e-18
 107.3000000       7.35620e-18       7.35620e-18
 107.4000000       7.36560e-18       7.36560e-18
 107.5000000       7.37500e-18       7.37500e-18
 107.6000000       7.38440e-18       7.38440e-18
 107.7000000       7.39380e-18       7.39380e-18
 107.8000000       7.40320e-18       7.40320e-18
 107.9000000       7.41260e-18       7.41260e-18
 108.0000000       7.42200e-18       7.42200e-18
 108.1000000       7.43140e-18       7.43140e-18
 108.2000000       7.44080e-18       7.44080e-18
 108.3000000       7.45020e-18       7.45020e-18
 108.4000000       7.45960e-18       7.45960e-18
 108.5000000       7.46900e-18       7.46900e-18
 108.6000000       7.47840e-18       7.47840e-18
 108.7000000       7.48780e-18       7.48780e-18
 108.8000000       7.49720e-18       7.49720e-18
 108.9000000       7.50660e-18       7.50660e-18
 109.0000000       7.51600e-18       7.51600e-18
 109.1000000       7.52540e-18       7.52540e-18
 109.2000000       7.53480e-18       7.53480e-18
 109.3000000       7.54420e-18       7.54420e-18
 109.4000000       7.55360e-18       7.55360e-18
 109.5000000       7.56300e-18       7.56300e-18
 109.6000000       7.57240e-18       7.57240e-18
 109.7000000       7.58180e-18       7.58180e-18
 109.8000000       7.59120e-18       7.59120e-18
 109.9000000       7.60060e-18       7.60060e-18
 110.0000000       7.60872e-18       7.60872e-18
 110.1000000       7.60920e-18       7.60920e-18
 110.2000000       7.60840e-18       7.60840e-18
 110.3000000       7.60760e-18       7.60760e-18
 110.4000000       7.60680e-18       7.60680e-18
 110.5000000       7.60600e-18       7.60600e-18
 110.6000000       7.60520e-18       7.60520e-18
 110.7000000       7.60440e-18       7.60440e-18
 110.8000000       7.60360e-18       7.60360e-18
 110.9000000       7.60280e-18       7.60280e-18
 111.0000000       7.60200e-18       7.60200e-18
 111.1000000       7.60120e-18       7.60120e-18
 111.2000000       7.60040e-18       7.60040e-18
 111.3000000       7.59960e-18       7.59960e-18
 111.4000000       7.59880e-18       7.59880e-18
 111.5000000       7.59800e-18       7.59800e-18
 111.6000000       7.59720e-18       7.59720e-18
 111.7000000       7.59640e-18       7.59640e-18
 111.8000000       7.59560e-18       7.59560e-18
 111.9000000       7.59480e-18       7.59480e-18
 112.0000000       7.59400e-18       7.59400e-18
 112.1000000       7.59320e-18       7.59320e-18
 112.2000000       7.59240e-18       7.59240e-18
 112.3000000       7.59160e-18       7.59160e-18
 112.4000000       7.59080e-18       7.59080e-18
 112.5000000       7.59000e-18       7.59000e-18
 112.6000000       7.58920e-18       7.58920e-18
 112.7000000       7.58840e-18       7.58840e-18
 112.8000000       7.58760e-18       7.58760e-18
 112.9000000       7.58680e-18       7.58680e-18
 113.0000000       7.58600e-18       7.58600e-18
 113.1000000       7.58520e-18       7.58520e-18
 113.2000000       7.58440e-18       7.58440e-18
 113.3000000       7.58360e-18       7.58360e-18
 113.4000000       7.58280e-18       7.58280e-18
 113.5000000       7.58200e-18       7.58200e-18
 113.6000000       7.58120e-18       7.58120e-18
 113.7000000       7.58040e-18       7.58040e-18
 113.8000000       7.57960e-18       7.57960e-18
 113.9000000       7.57880e-18       7.57880e-18
 114.0000000       7.57800e-18       7.57800e-18
 114.1000000       7.57720e-18       7.57720e-18
 114.2000000       7.57640e-18       7.57640e-18
 114.3000000       7.57560e-18       7.57560e-18
 114.4000000       7.57480e-18       7.57480e-18
 114.5000000       7.57400e-18       7.57400e-18
 114.6000000       7.57320e-18       7.57320e-18
 114.7000000       7.57240e-18       7.57240e-18
 114.8000000       7.57160e-18       7.57160e-18
 114.9000000       7.57080e-18       7.57080e-18
 115.0000000       7.56888e-18       7.56888e-18
 115.1000000       7.56020e-18       7.56020e-18
 115.2000000       7.55040e-18       7.55040e-18
 115.3000000       7.54060e-18       7.54060e-18
 115.4000000       7.53080e-18       7.53080e-18
 115.5000000       7.52100e-18       7.52100e-18
 115.6000000       7.51120e-18       7.51120e-18
 115.7000000       7.50140e-18       7.50140e-18
 115.8000000       7.49160e-18       7.49160e-18
 115.9000000       7.48180e-18       7.48180e-18
 116.0000000       7.47200e-18       7.47200e-18
 116.1000000       7.46220e-18       7.46220e-18
 116.2000000       7.45240e-18       7.45240e-18
 116.3000000       7.44260e-18       7.44260e-18
 116.4000000       7.43280e-18       7.43280e-18
 116.5000000       7.42300e-18       7.42300e-18
 116.6000000       7.41320e-18       7.41320e-18
 116.7000000       7.40340e-18       7.40340e-18
 116.8000000       7.39360e-18       7.39360e-18
 116.9000000       7.38380e-18       7.38380e-18
 117.0000000       7.37400e-18       7.37400e-18
 117.1000000       7.36420e-18       7.36420e-18
 117.2000000       7.35440e-18       7.35440e-18
 117.3000000       7.34460e-18       7.34460e-18
 117.4000000       7.33480e-18       7.33480e-18
 117.5000000       7.32500e-18       7.32500e-18
 117.6000000       7.31520e-18       7.31520e-18
 117.7000000       7.30540e-18       7.30540e-18
 117.8000000       7.29560e-18       7.29560e-18
 117.9000000       7.28580e-18       7.28580e-18
 118.0000000       7.27600e-18       7.27600e-18
 118.1000000       7.26620e-18       7.26620e-18
 118.2000000       7.25640e-18       7.25640e-18
 118.3000000       7.24660e-18       7.24660e-18
 118.4000000       7.23680e-18       7.23680e-18
 118.5000000       7.22700e-18       7.22700e-18
 118.6000000       7.21720e-18       7.21720e-18
 118.7000000       7.20740e-18       7.20740e-18
 118.8000000       7.19760e-18       7.19760e-18
 118.9000000       7.18780e-18       7.18780e-18
 119.0000000       7.17800e-18       7.17800e-18
 119.1000000       7.16820e-18       7.16820e-18
 119.2000000       7.15840e-18       7.15840e-18
 119.3000000       7.14860e-18       7.14860e-18
 119.4000000       7.13880e-18       7.13880e-18
 119.5000000       7.12900e-18       7.12900e-18
 119.6000000       7.11920e-18       7.11920e-18
 119.7000000       7.10940e-18       7.10940e-18
 119.8000000       7.09960e-18       7.09960e-18
 119.9000000       7.08980e-18       7.08980e-18
 120.0000000       7.07923e-18       7.07923e-18
 120.1000000       7.06400e-18       7.06400e-18
 120.2000000       7.04800e-18       7.04800e-18
 120.3000000       7.03200e-18       7.03200e-18
 120.4000000       7.01600e-18       7.01600e-18
 120.5000000       7.00000e-18       7.00000e-18
 120.6000000       6.98400e-18       6.98400e-18
 120.7000000       6.96800e-18       6.96800e-18
 120.8000000       6.95200e-18       6.95200e-18
 120.9000000       6.93600e-18       6.93600e-18
 121.0000000       6.92000e-18       6.92000e-18
 121.1000000       6.90400e-18       6.90400e-18
 121.2000000       6.88800e-18       6.88800e-18
 121.3000000       6.87200e-18       6.87200e-18
 121.4000000       6.85600e-18       6.85600e-18
 121.5000000       6.84000e-18       6.84000e-18
 121.6000000       6.82400e-18       6.82400e-18
 121.7000000       6.80800e-18       6.80800e-18
 121.8000000       6.79200e-18       6.79200e-18
 121.9000000       6.77600e-18       6.77600e-18
 122.0000000       6.76000e-18       6.76000e-18
 122.1000000       6.74400e-18       6.74400e-18
 122.2000000       6.72800e-18       6.72800e-18
 122.3000000       6.71200e-18       6.71200e-18
 122.4000000       6.69600e-18       6.69600e-18
 122.5000000       6.68000e-18       6.68000e-18
 122.6000000       6.66400e-18       6.66400e-18
 122.7000000       6.64800e-18       6.64800e-18
 122.8000000       6.63200e-18       6.63200e-18
 122.9000000       6.61600e-18       6.61600e-18
 123.0000000       6.60000e-18       6.60000e-18
 123.1000000       6.58400e-18       6.58400e-18
 123.2000000       6.56800e-18       6.56800e-18
 123.3000000       6.55200e-18       6.55200e-18
 123.4000000       6.53600e-18       6.53600e-18
 123.5000000       6.52000e-18       6.52000e-18
 123.6000000       6.50400e-18       6.50400e-18
 123.7000000       6.48800e-18       6.48800e-18
 123.8000000       6.47200e-18       6.47200e-18
 123.9000000       6.45600e-18       6.45600e-18
 124.0000000       6.44000e-18       6.44000e-18
 124.1000000       6.42400e-18       6.42400e-18
 124.2000000       6.40800e-18       6.40800e-18
 124.3000000       6.39200e-18       6.39200e-18
 124.4000000       6.37600e-18       6.37600e-18
 124.5000000       6.36000e-18       6.36000e-18
 124.6000000       6.34400e-18       6.34400e-18
 124.7000000       6.32800e-18       6.32800e-18
 124.8000000       6.31200e-18       6.31200e-18
 124.9000000       6.29600e-18       6.29600e-18
 125.0000000       6.27953e-18       6.27953e-18
 125.1000000       6.26020e-18       6.26020e-18
 125.2000000       6.24040e-18       6.24040e-18
 125.3000000       6.22060e-18       6.22060e-18
 125.4000000       6.20080e-18       6.20080e-18
 125.5000000       6.18100e-18       6.18100e-18
 125.6000000       6.16120e-18       6.16120e-18
 125.7000000       6.14140e-18       6.14140e-18
 125.8000000       6.12160e-18       6.12160e-18
 125.9000000       6.10180e-18       6.10180e-18
 126.0000000       6.08200e-18       6.08200e-18
 126.1000000       6.06220e-18       6.06220e-18
 126.2000000       6.04240e-18       6.04240e-18
 126.3000000       6.02260e-18       6.02260e-18
 126.4000000       6.00280e-18       6.00280e-18
 126.5000000       5.98300e-18       5.98300e-18
 126.6000000       5.96320e-18       5.96320e-18
 126.7000000       5.94340e-18       5.94340e-18
 126.8000000       5.92360e-18       5.92360e-18
 126.9000000       5.90380e-18       5.90380e-18
 127.0000000       5.88400e-18       5.88400e-18
 127.1000000       5.86420e-18       5.86420e-18
 127.2000000       5.84440e-18       5.84440e-18
 127.3000000       5.82460e-18       5.82460e-18
 127.4000000       5.80480e-18       5.80480e-18
 127.5000000       5.78500e-18       5.78500e-18
 127.6000000       5.76520e-18       5.76520e-18
 127.7000000       5.74540e-18       5.74540e-18
 127.8000000       5.72560e-18       5.72560e-18
 127.9000000       5.70580e-18       5.70580e-18
 128.0000000       5.68600e-18       5.68600e-18
 128.1000000       5.66620e-18       5.66620e-18
 128.2000000       5.64640e-18       5.64640e-18
 128.3000000       5.62660e-18       5.62660e-18
 128.4000000       5.60680e-18       5.60680e-18
 128.5000000       5.58700e-18       5.58700e-18
 128.6000000       5.56720e-18       5.56720e-18
 128.7000000       5.54740e-18       5.54740e-18
 128.8000000       5.52760e-18       5.52760e-18
 128.9000000       5.50780e-18       5.50780e-18
 129.0000000       5.48800e-18       5.48800e-18
 129.1000000       5.46820e-18       5.46820e-18
 129.2000000       5.44840e-18       5.44840e-18
