# NH cross sections
# Alan Heays 2016-01-27
# References: kirby1991, patel-misra1991, wang1990
# photoabsorption   -- Photoabsorption cross section (cm2)
# photodissociation -- Photodissociation cross section (cm2)
# photoionisation   -- Photoionisation cross section (cm2)
# 
# wavelength   photoabsorption photodissociation   photoionisation
  31.0000000       2.32431e-18       0.00000e+00       2.32431e-18
  31.1000000       2.33546e-18       0.00000e+00       2.33546e-18
  31.2000000       2.35032e-18       0.00000e+00       2.35032e-18
  31.3000000       2.36519e-18       0.00000e+00       2.36519e-18
  31.4000000       2.38006e-18       0.00000e+00       2.38006e-18
  31.5000000       2.39493e-18       0.00000e+00       2.39493e-18
  31.6000000       2.40979e-18       0.00000e+00       2.40979e-18
  31.7000000       2.42466e-18       0.00000e+00       2.42466e-18
  31.8000000       2.43953e-18       0.00000e+00       2.43953e-18
  31.9000000       2.45439e-18       0.00000e+00       2.45439e-18
  32.0000000       2.47025e-18       0.00000e+00       2.47025e-18
  32.1000000       2.49116e-18       0.00000e+00       2.49116e-18
  32.2000000       2.51280e-18       0.00000e+00       2.51280e-18
  32.3000000       2.53444e-18       0.00000e+00       2.53444e-18
  32.4000000       2.55607e-18       0.00000e+00       2.55607e-18
  32.5000000       2.57771e-18       0.00000e+00       2.57771e-18
  32.6000000       2.59935e-18       0.00000e+00       2.59935e-18
  32.7000000       2.62098e-18       0.00000e+00       2.62098e-18
  32.8000000       2.64262e-18       0.00000e+00       2.64262e-18
  32.9000000       2.66425e-18       0.00000e+00       2.66425e-18
  33.0000000       2.68555e-18       0.00000e+00       2.68555e-18
  33.1000000       2.70510e-18       0.00000e+00       2.70510e-18
  33.2000000       2.72439e-18       0.00000e+00       2.72439e-18
  33.3000000       2.74369e-18       0.00000e+00       2.74369e-18
  33.4000000       2.76299e-18       0.00000e+00       2.76299e-18
  33.5000000       2.78229e-18       0.00000e+00       2.78229e-18
  33.6000000       2.80159e-18       0.00000e+00       2.80159e-18
  33.7000000       2.82088e-18       0.00000e+00       2.82088e-18
  33.8000000       2.84018e-18       0.00000e+00       2.84018e-18
  33.9000000       2.85948e-18       0.00000e+00       2.85948e-18
  34.0000000       2.87908e-18       0.00000e+00       2.87908e-18
  34.1000000       2.90027e-18       0.00000e+00       2.90027e-18
  34.2000000       2.92168e-18       0.00000e+00       2.92168e-18
  34.3000000       2.94309e-18       0.00000e+00       2.94309e-18
  34.4000000       2.96451e-18       0.00000e+00       2.96451e-18
  34.5000000       2.98592e-18       0.00000e+00       2.98592e-18
  34.6000000       3.00733e-18       0.00000e+00       3.00733e-18
  34.7000000       3.02874e-18       0.00000e+00       3.02874e-18
  34.8000000       3.05015e-18       0.00000e+00       3.05015e-18
  34.9000000       3.07156e-18       0.00000e+00       3.07156e-18
  35.0000000       3.09286e-18       0.00000e+00       3.09286e-18
  35.1000000       3.11356e-18       0.00000e+00       3.11356e-18
  35.2000000       3.13417e-18       0.00000e+00       3.13417e-18
  35.3000000       3.15478e-18       0.00000e+00       3.15478e-18
  35.4000000       3.17539e-18       0.00000e+00       3.17539e-18
  35.5000000       3.19600e-18       0.00000e+00       3.19600e-18
  35.6000000       3.21662e-18       0.00000e+00       3.21662e-18
  35.7000000       3.23723e-18       0.00000e+00       3.23723e-18
  35.8000000       3.25784e-18       0.00000e+00       3.25784e-18
  35.9000000       3.27845e-18       0.00000e+00       3.27845e-18
  36.0000000       3.29906e-18       0.00000e+00       3.29906e-18
  36.1000000       3.31966e-18       0.00000e+00       3.31966e-18
  36.2000000       3.34026e-18       0.00000e+00       3.34026e-18
  36.3000000       3.36086e-18       0.00000e+00       3.36086e-18
  36.4000000       3.38145e-18       0.00000e+00       3.38145e-18
  36.5000000       3.40205e-18       0.00000e+00       3.40205e-18
  36.6000000       3.42265e-18       0.00000e+00       3.42265e-18
  36.7000000       3.44324e-18       0.00000e+00       3.44324e-18
  36.8000000       3.46384e-18       0.00000e+00       3.46384e-18
  36.9000000       3.48444e-18       0.00000e+00       3.48444e-18
  37.0000000       3.50536e-18       0.00000e+00       3.50536e-18
  37.1000000       3.52794e-18       0.00000e+00       3.52794e-18
  37.2000000       3.55077e-18       0.00000e+00       3.55077e-18
  37.3000000       3.57359e-18       0.00000e+00       3.57359e-18
  37.4000000       3.59641e-18       0.00000e+00       3.59641e-18
  37.5000000       3.61924e-18       0.00000e+00       3.61924e-18
  37.6000000       3.64206e-18       0.00000e+00       3.64206e-18
  37.7000000       3.66489e-18       0.00000e+00       3.66489e-18
  37.8000000       3.68771e-18       0.00000e+00       3.68771e-18
  37.9000000       3.71053e-18       0.00000e+00       3.71053e-18
  38.0000000       3.73355e-18       0.00000e+00       3.73355e-18
  38.1000000       3.75759e-18       0.00000e+00       3.75759e-18
  38.2000000       3.78177e-18       0.00000e+00       3.78177e-18
  38.3000000       3.80595e-18       0.00000e+00       3.80595e-18
  38.4000000       3.83013e-18       0.00000e+00       3.83013e-18
  38.5000000       3.85431e-18       0.00000e+00       3.85431e-18
  38.6000000       3.87849e-18       0.00000e+00       3.87849e-18
  38.7000000       3.90267e-18       0.00000e+00       3.90267e-18
  38.8000000       3.92685e-18       0.00000e+00       3.92685e-18
  38.9000000       3.95103e-18       0.00000e+00       3.95103e-18
  39.0000000       3.97472e-18       0.00000e+00       3.97472e-18
  39.1000000       3.99590e-18       0.00000e+00       3.99590e-18
  39.2000000       4.01672e-18       0.00000e+00       4.01672e-18
  39.3000000       4.03755e-18       0.00000e+00       4.03755e-18
  39.4000000       4.05837e-18       0.00000e+00       4.05837e-18
  39.5000000       4.07920e-18       0.00000e+00       4.07920e-18
  39.6000000       4.10002e-18       0.00000e+00       4.10002e-18
  39.7000000       4.12085e-18       0.00000e+00       4.12085e-18
  39.8000000       4.14168e-18       0.00000e+00       4.14168e-18
  39.9000000       4.16250e-18       0.00000e+00       4.16250e-18
  40.0000000       4.18384e-18       0.00000e+00       4.18384e-18
  40.1000000       4.20783e-18       0.00000e+00       4.20783e-18
  40.2000000       4.23219e-18       0.00000e+00       4.23219e-18
  40.3000000       4.25654e-18       0.00000e+00       4.25654e-18
  40.4000000       4.28090e-18       0.00000e+00       4.28090e-18
  40.5000000       4.30526e-18       0.00000e+00       4.30526e-18
  40.6000000       4.32962e-18       0.00000e+00       4.32962e-18
  40.7000000       4.35398e-18       0.00000e+00       4.35398e-18
  40.8000000       4.37834e-18       0.00000e+00       4.37834e-18
  40.9000000       4.40270e-18       0.00000e+00       4.40270e-18
  41.0000000       4.42711e-18       0.00000e+00       4.42711e-18
  41.1000000       4.45174e-18       0.00000e+00       4.45174e-18
  41.2000000       4.47641e-18       0.00000e+00       4.47641e-18
  41.3000000       4.50108e-18       0.00000e+00       4.50108e-18
  41.4000000       4.52574e-18       0.00000e+00       4.52574e-18
  41.5000000       4.55041e-18       0.00000e+00       4.55041e-18
  41.6000000       4.57508e-18       0.00000e+00       4.57508e-18
  41.7000000       4.59974e-18       0.00000e+00       4.59974e-18
  41.8000000       4.62441e-18       0.00000e+00       4.62441e-18
  41.9000000       4.64908e-18       0.00000e+00       4.64908e-18
  42.0000000       4.67378e-18       0.00000e+00       4.67378e-18
  42.1000000       4.69871e-18       0.00000e+00       4.69871e-18
  42.2000000       4.72366e-18       0.00000e+00       4.72366e-18
  42.3000000       4.74862e-18       0.00000e+00       4.74862e-18
  42.4000000       4.77357e-18       0.00000e+00       4.77357e-18
  42.5000000       4.79852e-18       0.00000e+00       4.79852e-18
  42.6000000       4.82348e-18       0.00000e+00       4.82348e-18
  42.7000000       4.84843e-18       0.00000e+00       4.84843e-18
  42.8000000       4.87338e-18       0.00000e+00       4.87338e-18
  42.9000000       4.89834e-18       0.00000e+00       4.89834e-18
  43.0000000       4.92304e-18       0.00000e+00       4.92304e-18
  43.1000000       4.94642e-18       0.00000e+00       4.94642e-18
  43.2000000       4.96963e-18       0.00000e+00       4.96963e-18
  43.3000000       4.99283e-18       0.00000e+00       4.99283e-18
  43.4000000       5.01603e-18       0.00000e+00       5.01603e-18
  43.5000000       5.03923e-18       0.00000e+00       5.03923e-18
  43.6000000       5.06243e-18       0.00000e+00       5.06243e-18
  43.7000000       5.08563e-18       0.00000e+00       5.08563e-18
  43.8000000       5.10884e-18       0.00000e+00       5.10884e-18
  43.9000000       5.13204e-18       0.00000e+00       5.13204e-18
  44.0000000       5.15531e-18       0.00000e+00       5.15531e-18
  44.1000000       5.17895e-18       0.00000e+00       5.17895e-18
  44.2000000       5.20264e-18       0.00000e+00       5.20264e-18
  44.3000000       5.22633e-18       0.00000e+00       5.22633e-18
  44.4000000       5.25002e-18       0.00000e+00       5.25002e-18
  44.5000000       5.27370e-18       0.00000e+00       5.27370e-18
  44.6000000       5.29739e-18       0.00000e+00       5.29739e-18
  44.7000000       5.32108e-18       0.00000e+00       5.32108e-18
  44.8000000       5.34477e-18       0.00000e+00       5.34477e-18
  44.9000000       5.36846e-18       0.00000e+00       5.36846e-18
  45.0000000       5.39215e-18       0.00000e+00       5.39215e-18
  45.1000000       5.41581e-18       0.00000e+00       5.41581e-18
  45.2000000       5.43946e-18       0.00000e+00       5.43946e-18
  45.3000000       5.46312e-18       0.00000e+00       5.46312e-18
  45.4000000       5.48678e-18       0.00000e+00       5.48678e-18
  45.5000000       5.51043e-18       0.00000e+00       5.51043e-18
  45.6000000       5.53409e-18       0.00000e+00       5.53409e-18
  45.7000000       5.55775e-18       0.00000e+00       5.55775e-18
  45.8000000       5.58140e-18       0.00000e+00       5.58140e-18
  45.9000000       5.60506e-18       0.00000e+00       5.60506e-18
  46.0000000       5.62846e-18       0.00000e+00       5.62846e-18
  46.1000000       5.65055e-18       0.00000e+00       5.65055e-18
  46.2000000       5.67245e-18       0.00000e+00       5.67245e-18
  46.3000000       5.69435e-18       0.00000e+00       5.69435e-18
  46.4000000       5.71626e-18       0.00000e+00       5.71626e-18
  46.5000000       5.73816e-18       0.00000e+00       5.73816e-18
  46.6000000       5.76006e-18       0.00000e+00       5.76006e-18
  46.7000000       5.78197e-18       0.00000e+00       5.78197e-18
  46.8000000       5.80387e-18       0.00000e+00       5.80387e-18
  46.9000000       5.82577e-18       0.00000e+00       5.82577e-18
  47.0000000       5.84746e-18       0.00000e+00       5.84746e-18
  47.1000000       5.86801e-18       0.00000e+00       5.86801e-18
  47.2000000       5.88841e-18       0.00000e+00       5.88841e-18
  47.3000000       5.90881e-18       0.00000e+00       5.90881e-18
  47.4000000       5.92921e-18       0.00000e+00       5.92921e-18
  47.5000000       5.94961e-18       0.00000e+00       5.94961e-18
  47.6000000       5.97001e-18       0.00000e+00       5.97001e-18
  47.7000000       5.99041e-18       0.00000e+00       5.99041e-18
  47.8000000       6.01081e-18       0.00000e+00       6.01081e-18
  47.9000000       6.03121e-18       0.00000e+00       6.03121e-18
  48.0000000       6.05191e-18       0.00000e+00       6.05191e-18
  48.1000000       6.07412e-18       0.00000e+00       6.07412e-18
  48.2000000       6.09655e-18       0.00000e+00       6.09655e-18
  48.3000000       6.11898e-18       0.00000e+00       6.11898e-18
  48.4000000       6.14141e-18       0.00000e+00       6.14141e-18
  48.5000000       6.16383e-18       0.00000e+00       6.16383e-18
  48.6000000       6.18626e-18       0.00000e+00       6.18626e-18
  48.7000000       6.20869e-18       0.00000e+00       6.20869e-18
  48.8000000       6.23112e-18       0.00000e+00       6.23112e-18
  48.9000000       6.25355e-18       0.00000e+00       6.25355e-18
  49.0000000       6.27588e-18       0.00000e+00       6.27588e-18
  49.1000000       6.29772e-18       0.00000e+00       6.29772e-18
  49.2000000       6.31949e-18       0.00000e+00       6.31949e-18
  49.3000000       6.34126e-18       0.00000e+00       6.34126e-18
  49.4000000       6.36303e-18       0.00000e+00       6.36303e-18
  49.5000000       6.38481e-18       0.00000e+00       6.38481e-18
  49.6000000       6.40658e-18       0.00000e+00       6.40658e-18
  49.7000000       6.42835e-18       0.00000e+00       6.42835e-18
  49.8000000       6.45012e-18       0.00000e+00       6.45012e-18
  49.9000000       6.47189e-18       0.00000e+00       6.47189e-18
  50.0000000       6.49362e-18       0.00000e+00       6.49362e-18
  50.1000000       6.51512e-18       0.00000e+00       6.51512e-18
  50.2000000       6.53658e-18       0.00000e+00       6.53658e-18
  50.3000000       6.55805e-18       0.00000e+00       6.55805e-18
  50.4000000       6.57952e-18       0.00000e+00       6.57952e-18
  50.5000000       6.60098e-18       0.00000e+00       6.60098e-18
  50.6000000       6.62245e-18       0.00000e+00       6.62245e-18
  50.7000000       6.64391e-18       0.00000e+00       6.64391e-18
  50.8000000       6.66538e-18       0.00000e+00       6.66538e-18
  50.9000000       6.68684e-18       0.00000e+00       6.68684e-18
  51.0000000       6.70812e-18       0.00000e+00       6.70812e-18
  51.1000000       6.72839e-18       0.00000e+00       6.72839e-18
  51.2000000       6.74852e-18       0.00000e+00       6.74852e-18
  51.3000000       6.76866e-18       0.00000e+00       6.76866e-18
  51.4000000       6.78879e-18       0.00000e+00       6.78879e-18
  51.5000000       6.80892e-18       0.00000e+00       6.80892e-18
  51.6000000       6.82906e-18       0.00000e+00       6.82906e-18
  51.7000000       6.84919e-18       0.00000e+00       6.84919e-18
  51.8000000       6.86932e-18       0.00000e+00       6.86932e-18
  51.9000000       6.88946e-18       0.00000e+00       6.88946e-18
  52.0000000       6.90944e-18       0.00000e+00       6.90944e-18
  52.1000000       6.92863e-18       0.00000e+00       6.92863e-18
  52.2000000       6.94772e-18       0.00000e+00       6.94772e-18
  52.3000000       6.96680e-18       0.00000e+00       6.96680e-18
  52.4000000       6.98589e-18       0.00000e+00       6.98589e-18
  52.5000000       7.00498e-18       0.00000e+00       7.00498e-18
  52.6000000       7.02406e-18       0.00000e+00       7.02406e-18
  52.7000000       7.04315e-18       0.00000e+00       7.04315e-18
  52.8000000       7.06223e-18       0.00000e+00       7.06223e-18
  52.9000000       7.08132e-18       0.00000e+00       7.08132e-18
  53.0000000       7.10014e-18       0.00000e+00       7.10014e-18
  53.1000000       7.11761e-18       0.00000e+00       7.11761e-18
  53.2000000       7.13488e-18       0.00000e+00       7.13488e-18
  53.3000000       7.15216e-18       0.00000e+00       7.15216e-18
  53.4000000       7.16944e-18       0.00000e+00       7.16944e-18
  53.5000000       7.18671e-18       0.00000e+00       7.18671e-18
  53.6000000       7.20399e-18       0.00000e+00       7.20399e-18
  53.7000000       7.22126e-18       0.00000e+00       7.22126e-18
  53.8000000       7.23854e-18       0.00000e+00       7.23854e-18
  53.9000000       7.25582e-18       0.00000e+00       7.25582e-18
  54.0000000       7.27378e-18       0.00000e+00       7.27378e-18
  54.1000000       7.29525e-18       0.00000e+00       7.29525e-18
  54.2000000       7.31723e-18       0.00000e+00       7.31723e-18
  54.3000000       7.33920e-18       0.00000e+00       7.33920e-18
  54.4000000       7.36118e-18       0.00000e+00       7.36118e-18
  54.5000000       7.38315e-18       0.00000e+00       7.38315e-18
  54.6000000       7.40513e-18       0.00000e+00       7.40513e-18
  54.7000000       7.42710e-18       0.00000e+00       7.42710e-18
  54.8000000       7.44908e-18       0.00000e+00       7.44908e-18
  54.9000000       7.47105e-18       0.00000e+00       7.47105e-18
  55.0000000       7.49201e-18       0.00000e+00       7.49201e-18
  55.1000000       7.50771e-18       0.00000e+00       7.50771e-18
  55.2000000       7.52266e-18       0.00000e+00       7.52266e-18
  55.3000000       7.53762e-18       0.00000e+00       7.53762e-18
  55.4000000       7.55257e-18       0.00000e+00       7.55257e-18
  55.5000000       7.56753e-18       0.00000e+00       7.56753e-18
  55.6000000       7.58249e-18       0.00000e+00       7.58249e-18
  55.7000000       7.59744e-18       0.00000e+00       7.59744e-18
  55.8000000       7.61240e-18       0.00000e+00       7.61240e-18
  55.9000000       7.62735e-18       0.00000e+00       7.62735e-18
  56.0000000       7.64228e-18       0.00000e+00       7.64228e-18
  56.1000000       7.65706e-18       0.00000e+00       7.65706e-18
  56.2000000       7.67183e-18       0.00000e+00       7.67183e-18
  56.3000000       7.68659e-18       0.00000e+00       7.68659e-18
  56.4000000       7.70135e-18       0.00000e+00       7.70135e-18
  56.5000000       7.71611e-18       0.00000e+00       7.71611e-18
  56.6000000       7.73087e-18       0.00000e+00       7.73087e-18
  56.7000000       7.74563e-18       0.00000e+00       7.74563e-18
  56.8000000       7.76039e-18       0.00000e+00       7.76039e-18
  56.9000000       7.77515e-18       0.00000e+00       7.77515e-18
  57.0000000       7.78951e-18       0.00000e+00       7.78951e-18
  57.1000000       7.80176e-18       0.00000e+00       7.80176e-18
  57.2000000       7.81371e-18       0.00000e+00       7.81371e-18
  57.3000000       7.82566e-18       0.00000e+00       7.82566e-18
  57.4000000       7.83761e-18       0.00000e+00       7.83761e-18
  57.5000000       7.84957e-18       0.00000e+00       7.84957e-18
  57.6000000       7.86152e-18       0.00000e+00       7.86152e-18
  57.7000000       7.87347e-18       0.00000e+00       7.87347e-18
  57.8000000       7.88542e-18       0.00000e+00       7.88542e-18
  57.9000000       7.89738e-18       0.00000e+00       7.89738e-18
  58.0000000       7.90993e-18       0.00000e+00       7.90993e-18
  58.1000000       7.92556e-18       0.00000e+00       7.92556e-18
  58.2000000       7.94164e-18       0.00000e+00       7.94164e-18
  58.3000000       7.95771e-18       0.00000e+00       7.95771e-18
  58.4000000       7.97378e-18       0.00000e+00       7.97378e-18
  58.5000000       7.98985e-18       0.00000e+00       7.98985e-18
  58.6000000       8.00592e-18       0.00000e+00       8.00592e-18
  58.7000000       8.02200e-18       0.00000e+00       8.02200e-18
  58.8000000       8.03807e-18       0.00000e+00       8.03807e-18
  58.9000000       8.05414e-18       0.00000e+00       8.05414e-18
  59.0000000       8.06976e-18       0.00000e+00       8.06976e-18
  59.1000000       8.08307e-18       0.00000e+00       8.08307e-18
  59.2000000       8.09606e-18       0.00000e+00       8.09606e-18
  59.3000000       8.10904e-18       0.00000e+00       8.10904e-18
  59.4000000       8.12203e-18       0.00000e+00       8.12203e-18
  59.5000000       8.13501e-18       0.00000e+00       8.13501e-18
  59.6000000       8.14800e-18       0.00000e+00       8.14800e-18
  59.7000000       8.16098e-18       0.00000e+00       8.16098e-18
  59.8000000       8.17397e-18       0.00000e+00       8.17397e-18
  59.9000000       8.18695e-18       0.00000e+00       8.18695e-18
  60.0000000       8.19982e-18       0.00000e+00       8.19982e-18
  60.1000000       8.21205e-18       0.00000e+00       8.21205e-18
  60.2000000       8.22420e-18       0.00000e+00       8.22420e-18
