# H2 cross sections
# Alan Heays 2016-04-19
# References: abgrall_etal2000, chan1992, backx1976
# 
# wavelength   photoabsorption photodissociation   photoionisation
  17.8000000       1.84250e-19       0.00000e+00       1.84250e-19
  17.9000000       1.89200e-19       0.00000e+00       1.89200e-19
  18.0000000       1.95800e-19       0.00000e+00       1.95800e-19
  18.1000000       2.02400e-19       0.00000e+00       2.02400e-19
  18.2000000       2.08633e-19       0.00000e+00       2.08633e-19
  18.3000000       2.12667e-19       0.00000e+00       2.12667e-19
  18.4000000       2.16333e-19       0.00000e+00       2.16333e-19
  18.5000000       2.20000e-19       0.00000e+00       2.20000e-19
  18.6000000       2.23667e-19       0.00000e+00       2.23667e-19
  18.7000000       2.27333e-19       0.00000e+00       2.27333e-19
  18.8000000       2.30979e-19       0.00000e+00       2.30979e-19
  18.9000000       2.34500e-19       0.00000e+00       2.34500e-19
  19.0000000       2.38000e-19       0.00000e+00       2.38000e-19
  19.1000000       2.41500e-19       0.00000e+00       2.41500e-19
  19.2000000       2.45000e-19       0.00000e+00       2.45000e-19
  19.3000000       2.48500e-19       0.00000e+00       2.48500e-19
  19.4000000       2.51563e-19       0.00000e+00       2.51563e-19
  19.5000000       2.52000e-19       0.00000e+00       2.52000e-19
  19.6000000       2.52000e-19       0.00000e+00       2.52000e-19
  19.7000000       2.52000e-19       0.00000e+00       2.52000e-19
  19.8000000       2.52000e-19       0.00000e+00       2.52000e-19
  19.9000000       2.52000e-19       0.00000e+00       2.52000e-19
  20.0000000       2.52196e-19       0.00000e+00       2.52196e-19
  20.1000000       2.53571e-19       0.00000e+00       2.53571e-19
  20.2000000       2.55143e-19       0.00000e+00       2.55143e-19
  20.3000000       2.56714e-19       0.00000e+00       2.56714e-19
  20.4000000       2.58286e-19       0.00000e+00       2.58286e-19
  20.5000000       2.59857e-19       0.00000e+00       2.59857e-19
  20.6000000       2.61429e-19       0.00000e+00       2.61429e-19
  20.7000000       2.64571e-19       0.00000e+00       2.64571e-19
  20.8000000       2.77143e-19       0.00000e+00       2.77143e-19
  20.9000000       2.91286e-19       0.00000e+00       2.91286e-19
  21.0000000       3.05429e-19       0.00000e+00       3.05429e-19
  21.1000000       3.19571e-19       0.00000e+00       3.19571e-19
  21.2000000       3.33714e-19       0.00000e+00       3.33714e-19
  21.3000000       3.47857e-19       0.00000e+00       3.47857e-19
  21.4000000       3.60036e-19       0.00000e+00       3.60036e-19
  21.5000000       3.60429e-19       0.00000e+00       3.60429e-19
  21.6000000       3.58857e-19       0.00000e+00       3.58857e-19
  21.7000000       3.57286e-19       0.00000e+00       3.57286e-19
  21.8000000       3.55714e-19       0.00000e+00       3.55714e-19
  21.9000000       3.54143e-19       0.00000e+00       3.54143e-19
  22.0000000       3.52571e-19       0.00000e+00       3.52571e-19
  22.1000000       3.52266e-19       0.00000e+00       3.52266e-19
  22.2000000       3.59556e-19       0.00000e+00       3.59556e-19
  22.3000000       3.68111e-19       0.00000e+00       3.68111e-19
  22.4000000       3.76667e-19       0.00000e+00       3.76667e-19
  22.5000000       3.85222e-19       0.00000e+00       3.85222e-19
  22.6000000       3.93778e-19       0.00000e+00       3.93778e-19
  22.7000000       4.02333e-19       0.00000e+00       4.02333e-19
  22.8000000       4.10889e-19       0.00000e+00       4.10889e-19
  22.9000000       4.19444e-19       0.00000e+00       4.19444e-19
  23.0000000       4.27274e-19       0.00000e+00       4.27274e-19
  23.1000000       4.30750e-19       0.00000e+00       4.30750e-19
  23.2000000       4.33500e-19       0.00000e+00       4.33500e-19
  23.3000000       4.36250e-19       0.00000e+00       4.36250e-19
  23.4000000       4.39000e-19       0.00000e+00       4.39000e-19
  23.5000000       4.41750e-19       0.00000e+00       4.41750e-19
  23.6000000       4.44500e-19       0.00000e+00       4.44500e-19
  23.7000000       4.47250e-19       0.00000e+00       4.47250e-19
  23.8000000       4.50619e-19       0.00000e+00       4.50619e-19
  23.9000000       4.57700e-19       0.00000e+00       4.57700e-19
  24.0000000       4.65400e-19       0.00000e+00       4.65400e-19
  24.1000000       4.73100e-19       0.00000e+00       4.73100e-19
  24.2000000       4.80800e-19       0.00000e+00       4.80800e-19
  24.3000000       4.88500e-19       0.00000e+00       4.88500e-19
  24.4000000       4.96200e-19       0.00000e+00       4.96200e-19
  24.5000000       5.03900e-19       0.00000e+00       5.03900e-19
  24.6000000       5.11600e-19       0.00000e+00       5.11600e-19
  24.7000000       5.19300e-19       0.00000e+00       5.19300e-19
  24.8000000       5.27825e-19       0.00000e+00       5.27825e-19
  24.9000000       5.41300e-19       0.00000e+00       5.41300e-19
  25.0000000       5.55600e-19       0.00000e+00       5.55600e-19
  25.1000000       5.69900e-19       0.00000e+00       5.69900e-19
  25.2000000       5.84200e-19       0.00000e+00       5.84200e-19
  25.3000000       5.98500e-19       0.00000e+00       5.98500e-19
  25.4000000       6.12800e-19       0.00000e+00       6.12800e-19
  25.5000000       6.27100e-19       0.00000e+00       6.27100e-19
  25.6000000       6.41400e-19       0.00000e+00       6.41400e-19
  25.7000000       6.55700e-19       0.00000e+00       6.55700e-19
  25.8000000       6.68660e-19       0.00000e+00       6.68660e-19
  25.9000000       6.73583e-19       0.00000e+00       6.73583e-19
  26.0000000       6.77167e-19       0.00000e+00       6.77167e-19
  26.1000000       6.80750e-19       0.00000e+00       6.80750e-19
  26.2000000       6.84333e-19       0.00000e+00       6.84333e-19
  26.3000000       6.87917e-19       0.00000e+00       6.87917e-19
  26.4000000       6.91500e-19       0.00000e+00       6.91500e-19
  26.5000000       6.95083e-19       0.00000e+00       6.95083e-19
  26.6000000       6.98667e-19       0.00000e+00       6.98667e-19
  26.7000000       7.02250e-19       0.00000e+00       7.02250e-19
  26.8000000       7.05833e-19       0.00000e+00       7.05833e-19
  26.9000000       7.09417e-19       0.00000e+00       7.09417e-19
  27.0000000       7.13240e-19       0.00000e+00       7.13240e-19
  27.1000000       7.18500e-19       0.00000e+00       7.18500e-19
  27.2000000       7.24000e-19       0.00000e+00       7.24000e-19
  27.3000000       7.29500e-19       0.00000e+00       7.29500e-19
  27.4000000       7.35000e-19       0.00000e+00       7.35000e-19
  27.5000000       7.40500e-19       0.00000e+00       7.40500e-19
  27.6000000       7.46000e-19       0.00000e+00       7.46000e-19
  27.7000000       7.51500e-19       0.00000e+00       7.51500e-19
  27.8000000       7.57000e-19       0.00000e+00       7.57000e-19
  27.9000000       7.62500e-19       0.00000e+00       7.62500e-19
  28.0000000       7.68000e-19       0.00000e+00       7.68000e-19
  28.1000000       7.73500e-19       0.00000e+00       7.73500e-19
  28.2000000       7.79688e-19       0.00000e+00       7.79688e-19
  28.3000000       7.90000e-19       0.00000e+00       7.90000e-19
  28.4000000       8.01000e-19       0.00000e+00       8.01000e-19
  28.5000000       8.12000e-19       0.00000e+00       8.12000e-19
  28.6000000       8.23000e-19       0.00000e+00       8.23000e-19
  28.7000000       8.34000e-19       0.00000e+00       8.34000e-19
  28.8000000       8.45000e-19       0.00000e+00       8.45000e-19
  28.9000000       8.56000e-19       0.00000e+00       8.56000e-19
  29.0000000       8.67000e-19       0.00000e+00       8.67000e-19
  29.1000000       8.78000e-19       0.00000e+00       8.78000e-19
  29.2000000       8.89000e-19       0.00000e+00       8.89000e-19
  29.3000000       9.00000e-19       0.00000e+00       9.00000e-19
  29.4000000       9.11000e-19       0.00000e+00       9.11000e-19
  29.5000000       9.22025e-19       0.00000e+00       9.22025e-19
  29.6000000       9.33200e-19       0.00000e+00       9.33200e-19
  29.7000000       9.44400e-19       0.00000e+00       9.44400e-19
  29.8000000       9.55600e-19       0.00000e+00       9.55600e-19
  29.9000000       9.66800e-19       0.00000e+00       9.66800e-19
  30.0000000       9.78000e-19       0.00000e+00       9.78000e-19
  30.1000000       9.89200e-19       0.00000e+00       9.89200e-19
  30.2000000       1.00040e-18       0.00000e+00       1.00040e-18
  30.3000000       1.01160e-18       0.00000e+00       1.01160e-18
  30.4000000       1.02280e-18       0.00000e+00       1.02280e-18
  30.5000000       1.03400e-18       0.00000e+00       1.03400e-18
  30.6000000       1.04520e-18       0.00000e+00       1.04520e-18
  30.7000000       1.05640e-18       0.00000e+00       1.05640e-18
  30.8000000       1.06760e-18       0.00000e+00       1.06760e-18
  30.9000000       1.07880e-18       0.00000e+00       1.07880e-18
  31.0000000       1.09048e-18       0.00000e+00       1.09048e-18
  31.1000000       1.10500e-18       0.00000e+00       1.10500e-18
  31.2000000       1.12000e-18       0.00000e+00       1.12000e-18
  31.3000000       1.13500e-18       0.00000e+00       1.13500e-18
  31.4000000       1.15000e-18       0.00000e+00       1.15000e-18
  31.5000000       1.16500e-18       0.00000e+00       1.16500e-18
  31.6000000       1.18000e-18       0.00000e+00       1.18000e-18
  31.7000000       1.19500e-18       0.00000e+00       1.19500e-18
  31.8000000       1.21141e-18       0.00000e+00       1.21141e-18
  31.9000000       1.23625e-18       0.00000e+00       1.23625e-18
  32.0000000       1.26250e-18       0.00000e+00       1.26250e-18
  32.1000000       1.28875e-18       0.00000e+00       1.28875e-18
  32.2000000       1.31500e-18       0.00000e+00       1.31500e-18
  32.3000000       1.34125e-18       0.00000e+00       1.34125e-18
  32.4000000       1.36750e-18       0.00000e+00       1.36750e-18
  32.5000000       1.39375e-18       0.00000e+00       1.39375e-18
  32.6000000       1.41700e-18       0.00000e+00       1.41700e-18
  32.7000000       1.42222e-18       0.00000e+00       1.42222e-18
  32.8000000       1.42444e-18       0.00000e+00       1.42444e-18
  32.9000000       1.42667e-18       0.00000e+00       1.42667e-18
  33.0000000       1.42889e-18       0.00000e+00       1.42889e-18
  33.1000000       1.43111e-18       0.00000e+00       1.43111e-18
  33.2000000       1.43333e-18       0.00000e+00       1.43333e-18
  33.3000000       1.43556e-18       0.00000e+00       1.43556e-18
  33.4000000       1.43778e-18       0.00000e+00       1.43778e-18
  33.5000000       1.44097e-18       0.00000e+00       1.44097e-18
  33.6000000       1.45000e-18       0.00000e+00       1.45000e-18
  33.7000000       1.46000e-18       0.00000e+00       1.46000e-18
  33.8000000       1.47000e-18       0.00000e+00       1.47000e-18
  33.9000000       1.48000e-18       0.00000e+00       1.48000e-18
  34.0000000       1.49000e-18       0.00000e+00       1.49000e-18
  34.1000000       1.50000e-18       0.00000e+00       1.50000e-18
  34.2000000       1.51000e-18       0.00000e+00       1.51000e-18
  34.3000000       1.52000e-18       0.00000e+00       1.52000e-18
  34.4000000       1.53088e-18       0.00000e+00       1.53088e-18
  34.5000000       1.54700e-18       0.00000e+00       1.54700e-18
  34.6000000       1.56400e-18       0.00000e+00       1.56400e-18
  34.7000000       1.58100e-18       0.00000e+00       1.58100e-18
  34.8000000       1.59800e-18       0.00000e+00       1.59800e-18
  34.9000000       1.61500e-18       0.00000e+00       1.61500e-18
  35.0000000       1.63200e-18       0.00000e+00       1.63200e-18
  35.1000000       1.64900e-18       0.00000e+00       1.64900e-18
  35.2000000       1.66600e-18       0.00000e+00       1.66600e-18
  35.3000000       1.68300e-18       0.00000e+00       1.68300e-18
  35.4000000       1.70003e-18       0.00000e+00       1.70003e-18
  35.5000000       1.71727e-18       0.00000e+00       1.71727e-18
  35.6000000       1.73455e-18       0.00000e+00       1.73455e-18
  35.7000000       1.75182e-18       0.00000e+00       1.75182e-18
  35.8000000       1.76909e-18       0.00000e+00       1.76909e-18
  35.9000000       1.78636e-18       0.00000e+00       1.78636e-18
  36.0000000       1.80364e-18       0.00000e+00       1.80364e-18
  36.1000000       1.82091e-18       0.00000e+00       1.82091e-18
  36.2000000       1.83818e-18       0.00000e+00       1.83818e-18
  36.3000000       1.85545e-18       0.00000e+00       1.85545e-18
  36.4000000       1.87273e-18       0.00000e+00       1.87273e-18
  36.5000000       1.89011e-18       0.00000e+00       1.89011e-18
  36.6000000       1.90818e-18       0.00000e+00       1.90818e-18
  36.7000000       1.92636e-18       0.00000e+00       1.92636e-18
  36.8000000       1.94455e-18       0.00000e+00       1.94455e-18
  36.9000000       1.96273e-18       0.00000e+00       1.96273e-18
  37.0000000       1.98091e-18       0.00000e+00       1.98091e-18
  37.1000000       1.99909e-18       0.00000e+00       1.99909e-18
  37.2000000       2.01727e-18       0.00000e+00       2.01727e-18
  37.3000000       2.03545e-18       0.00000e+00       2.03545e-18
  37.4000000       2.05364e-18       0.00000e+00       2.05364e-18
  37.5000000       2.07182e-18       0.00000e+00       2.07182e-18
  37.6000000       2.08966e-18       0.00000e+00       2.08966e-18
  37.7000000       2.10545e-18       0.00000e+00       2.10545e-18
  37.8000000       2.12091e-18       0.00000e+00       2.12091e-18
  37.9000000       2.13636e-18       0.00000e+00       2.13636e-18
  38.0000000       2.15182e-18       0.00000e+00       2.15182e-18
  38.1000000       2.16727e-18       0.00000e+00       2.16727e-18
  38.2000000       2.18273e-18       0.00000e+00       2.18273e-18
  38.3000000       2.19818e-18       0.00000e+00       2.19818e-18
  38.4000000       2.21364e-18       0.00000e+00       2.21364e-18
  38.5000000       2.22909e-18       0.00000e+00       2.22909e-18
  38.6000000       2.24455e-18       0.00000e+00       2.24455e-18
  38.7000000       2.26028e-18       0.00000e+00       2.26028e-18
  38.8000000       2.27769e-18       0.00000e+00       2.27769e-18
  38.9000000       2.29538e-18       0.00000e+00       2.29538e-18
  39.0000000       2.31308e-18       0.00000e+00       2.31308e-18
  39.1000000       2.33077e-18       0.00000e+00       2.33077e-18
  39.2000000       2.34846e-18       0.00000e+00       2.34846e-18
  39.3000000       2.36615e-18       0.00000e+00       2.36615e-18
  39.4000000       2.38385e-18       0.00000e+00       2.38385e-18
  39.5000000       2.40154e-18       0.00000e+00       2.40154e-18
  39.6000000       2.41923e-18       0.00000e+00       2.41923e-18
  39.7000000       2.43692e-18       0.00000e+00       2.43692e-18
  39.8000000       2.45462e-18       0.00000e+00       2.45462e-18
  39.9000000       2.47231e-18       0.00000e+00       2.47231e-18
  40.0000000       2.48981e-18       0.00000e+00       2.48981e-18
  40.1000000       2.50615e-18       0.00000e+00       2.50615e-18
  40.2000000       2.52231e-18       0.00000e+00       2.52231e-18
  40.3000000       2.53846e-18       0.00000e+00       2.53846e-18
  40.4000000       2.55462e-18       0.00000e+00       2.55462e-18
  40.5000000       2.57077e-18       0.00000e+00       2.57077e-18
  40.6000000       2.58692e-18       0.00000e+00       2.58692e-18
  40.7000000       2.60308e-18       0.00000e+00       2.60308e-18
  40.8000000       2.61923e-18       0.00000e+00       2.61923e-18
  40.9000000       2.63538e-18       0.00000e+00       2.63538e-18
  41.0000000       2.65154e-18       0.00000e+00       2.65154e-18
  41.1000000       2.66769e-18       0.00000e+00       2.66769e-18
  41.2000000       2.68385e-18       0.00000e+00       2.68385e-18
  41.3000000       2.69998e-18       0.00000e+00       2.69998e-18
  41.4000000       2.71600e-18       0.00000e+00       2.71600e-18
  41.5000000       2.73200e-18       0.00000e+00       2.73200e-18
  41.6000000       2.74800e-18       0.00000e+00       2.74800e-18
  41.7000000       2.76400e-18       0.00000e+00       2.76400e-18
  41.8000000       2.78000e-18       0.00000e+00       2.78000e-18
  41.9000000       2.79600e-18       0.00000e+00       2.79600e-18
  42.0000000       2.81200e-18       0.00000e+00       2.81200e-18
  42.1000000       2.82800e-18       0.00000e+00       2.82800e-18
  42.2000000       2.84400e-18       0.00000e+00       2.84400e-18
  42.3000000       2.86000e-18       0.00000e+00       2.86000e-18
  42.4000000       2.87600e-18       0.00000e+00       2.87600e-18
  42.5000000       2.89200e-18       0.00000e+00       2.89200e-18
  42.6000000       2.90800e-18       0.00000e+00       2.90800e-18
  42.7000000       2.92400e-18       0.00000e+00       2.92400e-18
  42.8000000       2.93992e-18       0.00000e+00       2.93992e-18
  42.9000000       2.95533e-18       0.00000e+00       2.95533e-18
  43.0000000       2.97067e-18       0.00000e+00       2.97067e-18
  43.1000000       2.98600e-18       0.00000e+00       2.98600e-18
  43.2000000       3.00133e-18       0.00000e+00       3.00133e-18
  43.3000000       3.01667e-18       0.00000e+00       3.01667e-18
  43.4000000       3.03200e-18       0.00000e+00       3.03200e-18
  43.5000000       3.04733e-18       0.00000e+00       3.04733e-18
  43.6000000       3.06267e-18       0.00000e+00       3.06267e-18
  43.7000000       3.07800e-18       0.00000e+00       3.07800e-18
  43.8000000       3.09333e-18       0.00000e+00       3.09333e-18
  43.9000000       3.10867e-18       0.00000e+00       3.10867e-18
  44.0000000       3.12400e-18       0.00000e+00       3.12400e-18
  44.1000000       3.13933e-18       0.00000e+00       3.13933e-18
  44.2000000       3.15467e-18       0.00000e+00       3.15467e-18
  44.3000000       3.17113e-18       0.00000e+00       3.17113e-18
  44.4000000       3.19438e-18       0.00000e+00       3.19438e-18
  44.5000000       3.21875e-18       0.00000e+00       3.21875e-18
  44.6000000       3.24313e-18       0.00000e+00       3.24313e-18
  44.7000000       3.26750e-18       0.00000e+00       3.26750e-18
  44.8000000       3.29188e-18       0.00000e+00       3.29188e-18
  44.9000000       3.31625e-18       0.00000e+00       3.31625e-18
  45.0000000       3.34063e-18       0.00000e+00       3.34063e-18
  45.1000000       3.36500e-18       0.00000e+00       3.36500e-18
  45.2000000       3.38938e-18       0.00000e+00       3.38938e-18
  45.3000000       3.41375e-18       0.00000e+00       3.41375e-18
  45.4000000       3.43813e-18       0.00000e+00       3.43813e-18
  45.5000000       3.46250e-18       0.00000e+00       3.46250e-18
  45.6000000       3.48688e-18       0.00000e+00       3.48688e-18
  45.7000000       3.51125e-18       0.00000e+00       3.51125e-18
  45.8000000       3.53563e-18       0.00000e+00       3.53563e-18
  45.9000000       3.55883e-18       0.00000e+00       3.55883e-18
  46.0000000       3.57500e-18       0.00000e+00       3.57500e-18
  46.1000000       3.59000e-18       0.00000e+00       3.59000e-18
  46.2000000       3.60500e-18       0.00000e+00       3.60500e-18
  46.3000000       3.62000e-18       0.00000e+00       3.62000e-18
  46.4000000       3.63500e-18       0.00000e+00       3.63500e-18
  46.5000000       3.65000e-18       0.00000e+00       3.65000e-18
  46.6000000       3.66500e-18       0.00000e+00       3.66500e-18
  46.7000000       3.68000e-18       0.00000e+00       3.68000e-18
  46.8000000       3.69500e-18       0.00000e+00       3.69500e-18
  46.9000000       3.71000e-18       0.00000e+00       3.71000e-18
  47.0000000       3.72500e-18       0.00000e+00       3.72500e-18
  47.1000000       3.74000e-18       0.00000e+00       3.74000e-18
  47.2000000       3.75500e-18       0.00000e+00       3.75500e-18
  47.3000000       3.77000e-18       0.00000e+00       3.77000e-18
