# HCN cross sections
# Alan Heays 2016-01-28
# Reference: west1974, nuth1982, lee1980, dibeler1968
# photoabsorption   -- Photoabsorption cross section (cm2)
# photodissociation -- Photodissociation cross section (cm2)
# photoionisation   -- Photoionisation cross section (cm2)
# 
# wavelength   photoabsorption photodissociation   photoionisation
  62.8000000       2.42402e-17       0.00000e+00       2.42402e-17
  62.9000000       2.41823e-17       0.00000e+00       2.41823e-17
  63.0000000       2.41052e-17       0.00000e+00       2.41052e-17
  63.1000000       2.40281e-17       0.00000e+00       2.40281e-17
  63.2000000       2.39510e-17       0.00000e+00       2.39510e-17
  63.3000000       2.38446e-17       0.00000e+00       2.38446e-17
  63.4000000       2.36910e-17       0.00000e+00       2.36910e-17
  63.5000000       2.35367e-17       0.00000e+00       2.35367e-17
  63.6000000       2.33825e-17       0.00000e+00       2.33825e-17
  63.7000000       2.32283e-17       0.00000e+00       2.32283e-17
  63.8000000       2.30886e-17       0.00000e+00       2.30886e-17
  63.9000000       2.30639e-17       0.00000e+00       2.30639e-17
  64.0000000       2.30639e-17       0.00000e+00       2.30639e-17
  64.1000000       2.30639e-17       0.00000e+00       2.30639e-17
  64.2000000       2.30639e-17       0.00000e+00       2.30639e-17
  64.3000000       2.30639e-17       0.00000e+00       2.30639e-17
  64.4000000       2.30639e-17       0.00000e+00       2.30639e-17
  64.5000000       2.30639e-17       0.00000e+00       2.30639e-17
  64.6000000       2.30639e-17       0.00000e+00       2.30639e-17
  64.7000000       2.30639e-17       0.00000e+00       2.30639e-17
  64.8000000       2.30639e-17       0.00000e+00       2.30639e-17
  64.9000000       2.30758e-17       0.00000e+00       2.30758e-17
  65.0000000       2.31454e-17       0.00000e+00       2.31454e-17
  65.1000000       2.32225e-17       0.00000e+00       2.32225e-17
  65.2000000       2.32996e-17       0.00000e+00       2.32996e-17
  65.3000000       2.33767e-17       0.00000e+00       2.33767e-17
  65.4000000       2.34522e-17       0.00000e+00       2.34522e-17
  65.5000000       2.33877e-17       0.00000e+00       2.33877e-17
  65.6000000       2.32335e-17       0.00000e+00       2.32335e-17
  65.7000000       2.30793e-17       0.00000e+00       2.30793e-17
  65.8000000       2.29251e-17       0.00000e+00       2.29251e-17
  65.9000000       2.27709e-17       0.00000e+00       2.27709e-17
  66.0000000       2.26881e-17       0.00000e+00       2.26881e-17
  66.1000000       2.28267e-17       0.00000e+00       2.28267e-17
  66.2000000       2.29809e-17       0.00000e+00       2.29809e-17
  66.3000000       2.31351e-17       0.00000e+00       2.31351e-17
  66.4000000       2.32894e-17       0.00000e+00       2.32894e-17
  66.5000000       2.34390e-17       0.00000e+00       2.34390e-17
  66.6000000       2.34832e-17       0.00000e+00       2.34832e-17
  66.7000000       2.34832e-17       0.00000e+00       2.34832e-17
  66.8000000       2.34832e-17       0.00000e+00       2.34832e-17
  66.9000000       2.34832e-17       0.00000e+00       2.34832e-17
  67.0000000       2.34832e-17       0.00000e+00       2.34832e-17
  67.1000000       2.35082e-17       0.00000e+00       2.35082e-17
  67.2000000       2.35838e-17       0.00000e+00       2.35838e-17
  67.3000000       2.36610e-17       0.00000e+00       2.36610e-17
  67.4000000       2.37381e-17       0.00000e+00       2.37381e-17
  67.5000000       2.38152e-17       0.00000e+00       2.38152e-17
  67.6000000       2.38965e-17       0.00000e+00       2.38965e-17
  67.7000000       2.40229e-17       0.00000e+00       2.40229e-17
  67.8000000       2.41617e-17       0.00000e+00       2.41617e-17
  67.9000000       2.43005e-17       0.00000e+00       2.43005e-17
  68.0000000       2.44393e-17       0.00000e+00       2.44393e-17
  68.1000000       2.45781e-17       0.00000e+00       2.45781e-17
  68.2000000       2.47096e-17       0.00000e+00       2.47096e-17
  68.3000000       2.47412e-17       0.00000e+00       2.47412e-17
  68.4000000       2.47412e-17       0.00000e+00       2.47412e-17
  68.5000000       2.47412e-17       0.00000e+00       2.47412e-17
  68.6000000       2.47412e-17       0.00000e+00       2.47412e-17
  68.7000000       2.47412e-17       0.00000e+00       2.47412e-17
  68.8000000       2.47958e-17       0.00000e+00       2.47958e-17
  68.9000000       2.49337e-17       0.00000e+00       2.49337e-17
  69.0000000       2.50725e-17       0.00000e+00       2.50725e-17
  69.1000000       2.52113e-17       0.00000e+00       2.52113e-17
  69.2000000       2.53501e-17       0.00000e+00       2.53501e-17
  69.3000000       2.54889e-17       0.00000e+00       2.54889e-17
  69.4000000       2.55782e-17       0.00000e+00       2.55782e-17
  69.5000000       2.55799e-17       0.00000e+00       2.55799e-17
  69.6000000       2.55799e-17       0.00000e+00       2.55799e-17
  69.7000000       2.55799e-17       0.00000e+00       2.55799e-17
  69.8000000       2.55799e-17       0.00000e+00       2.55799e-17
  69.9000000       2.55799e-17       0.00000e+00       2.55799e-17
  70.0000000       2.56543e-17       0.00000e+00       2.56543e-17
  70.1000000       2.58811e-17       0.00000e+00       2.58811e-17
  70.2000000       2.61125e-17       0.00000e+00       2.61125e-17
  70.3000000       2.63438e-17       0.00000e+00       2.63438e-17
  70.4000000       2.65752e-17       0.00000e+00       2.65752e-17
  70.5000000       2.68065e-17       0.00000e+00       2.68065e-17
  70.6000000       2.70378e-17       0.00000e+00       2.70378e-17
  70.7000000       2.72692e-17       0.00000e+00       2.72692e-17
  70.8000000       2.75005e-17       0.00000e+00       2.75005e-17
  70.9000000       2.77319e-17       0.00000e+00       2.77319e-17
  71.0000000       2.79632e-17       0.00000e+00       2.79632e-17
  71.1000000       2.82276e-17       0.00000e+00       2.82276e-17
  71.2000000       2.85359e-17       0.00000e+00       2.85359e-17
  71.3000000       2.88444e-17       0.00000e+00       2.88444e-17
  71.4000000       2.91528e-17       0.00000e+00       2.91528e-17
  71.5000000       2.94613e-17       0.00000e+00       2.94613e-17
  71.6000000       2.97434e-17       0.00000e+00       2.97434e-17
  71.7000000       2.98592e-17       0.00000e+00       2.98592e-17
  71.8000000       2.99459e-17       0.00000e+00       2.99459e-17
  71.9000000       3.00327e-17       0.00000e+00       3.00327e-17
  72.0000000       3.01194e-17       0.00000e+00       3.01194e-17
  72.1000000       3.02041e-17       0.00000e+00       3.02041e-17
  72.2000000       3.02817e-17       0.00000e+00       3.02817e-17
  72.3000000       3.03588e-17       0.00000e+00       3.03588e-17
  72.4000000       3.04359e-17       0.00000e+00       3.04359e-17
  72.5000000       3.05130e-17       0.00000e+00       3.05130e-17
  72.6000000       3.05899e-17       0.00000e+00       3.05899e-17
  72.7000000       3.06617e-17       0.00000e+00       3.06617e-17
  72.8000000       3.07311e-17       0.00000e+00       3.07311e-17
  72.9000000       3.08005e-17       0.00000e+00       3.08005e-17
  73.0000000       3.08699e-17       0.00000e+00       3.08699e-17
  73.1000000       3.09393e-17       0.00000e+00       3.09393e-17
  73.2000000       3.10088e-17       0.00000e+00       3.10088e-17
  73.3000000       3.10833e-17       0.00000e+00       3.10833e-17
  73.4000000       3.11604e-17       0.00000e+00       3.11604e-17
  73.5000000       3.12376e-17       0.00000e+00       3.12376e-17
  73.6000000       3.13147e-17       0.00000e+00       3.13147e-17
  73.7000000       3.13919e-17       0.00000e+00       3.13919e-17
  73.8000000       3.14482e-17       0.00000e+00       3.14482e-17
  73.9000000       3.14508e-17       0.00000e+00       3.14508e-17
  74.0000000       3.14508e-17       0.00000e+00       3.14508e-17
  74.1000000       3.14508e-17       0.00000e+00       3.14508e-17
  74.2000000       3.14508e-17       0.00000e+00       3.14508e-17
  74.3000000       3.14155e-17       0.00000e+00       3.14155e-17
  74.4000000       3.13292e-17       0.00000e+00       3.13292e-17
  74.5000000       3.12424e-17       0.00000e+00       3.12424e-17
  74.6000000       3.11556e-17       0.00000e+00       3.11556e-17
  74.7000000       3.10690e-17       0.00000e+00       3.10690e-17
  74.8000000       3.10313e-17       0.00000e+00       3.10313e-17
  74.9000000       3.10313e-17       0.00000e+00       3.10313e-17
  75.0000000       3.10313e-17       0.00000e+00       3.10313e-17
  75.1000000       3.10313e-17       0.00000e+00       3.10313e-17
  75.2000000       3.10313e-17       0.00000e+00       3.10313e-17
  75.3000000       3.10312e-17       0.00000e+00       3.10312e-17
  75.4000000       3.08944e-17       0.00000e+00       3.08944e-17
  75.5000000       3.06342e-17       0.00000e+00       3.06342e-17
  75.6000000       3.03740e-17       0.00000e+00       3.03740e-17
  75.7000000       3.01138e-17       0.00000e+00       3.01138e-17
  75.8000000       2.98613e-17       0.00000e+00       2.98613e-17
  75.9000000       2.98802e-17       0.00000e+00       2.98802e-17
  76.0000000       3.00344e-17       0.00000e+00       3.00344e-17
  76.1000000       3.01886e-17       0.00000e+00       3.01886e-17
  76.2000000       3.03428e-17       0.00000e+00       3.03428e-17
  76.3000000       3.04970e-17       0.00000e+00       3.04970e-17
  76.4000000       3.06074e-17       0.00000e+00       3.06074e-17
  76.5000000       3.06120e-17       0.00000e+00       3.06120e-17
  76.6000000       3.06120e-17       0.00000e+00       3.06120e-17
  76.7000000       3.06120e-17       0.00000e+00       3.06120e-17
  76.8000000       3.06120e-17       0.00000e+00       3.06120e-17
  76.9000000       3.06236e-17       0.00000e+00       3.06236e-17
  77.0000000       3.08008e-17       0.00000e+00       3.08008e-17
  77.1000000       3.10322e-17       0.00000e+00       3.10322e-17
  77.2000000       3.12635e-17       0.00000e+00       3.12635e-17
  77.3000000       3.14949e-17       0.00000e+00       3.14949e-17
  77.4000000       3.17262e-17       0.00000e+00       3.17262e-17
  77.5000000       3.19219e-17       0.00000e+00       3.19219e-17
  77.6000000       3.20613e-17       0.00000e+00       3.20613e-17
  77.7000000       3.22001e-17       0.00000e+00       3.22001e-17
  77.8000000       3.23388e-17       0.00000e+00       3.23388e-17
  77.9000000       3.24776e-17       0.00000e+00       3.24776e-17
  78.0000000       3.26164e-17       0.00000e+00       3.26164e-17
  78.1000000       3.27975e-17       0.00000e+00       3.27975e-17
  78.2000000       3.30561e-17       0.00000e+00       3.30561e-17
  78.3000000       3.33165e-17       0.00000e+00       3.33165e-17
  78.4000000       3.35768e-17       0.00000e+00       3.35768e-17
  78.5000000       3.38371e-17       0.00000e+00       3.38371e-17
  78.6000000       3.40712e-17       0.00000e+00       3.40712e-17
  78.7000000       3.42794e-17       0.00000e+00       3.42794e-17
  78.8000000       3.44876e-17       0.00000e+00       3.44876e-17
  78.9000000       3.46958e-17       0.00000e+00       3.46958e-17
  79.0000000       3.49040e-17       0.00000e+00       3.49040e-17
  79.1000000       3.51122e-17       0.00000e+00       3.51122e-17
  79.2000000       3.52601e-17       0.00000e+00       3.52601e-17
  79.3000000       3.53373e-17       0.00000e+00       3.53373e-17
  79.4000000       3.54144e-17       0.00000e+00       3.54144e-17
  79.5000000       3.54915e-17       0.00000e+00       3.54915e-17
  79.6000000       3.55686e-17       0.00000e+00       3.55686e-17
  79.7000000       3.56588e-17       0.00000e+00       3.56588e-17
  79.8000000       3.58212e-17       0.00000e+00       3.58212e-17
  79.9000000       3.59947e-17       0.00000e+00       3.59947e-17
  80.0000000       3.61683e-17       0.00000e+00       3.61683e-17
  80.1000000       3.63418e-17       0.00000e+00       3.63418e-17
  80.2000000       3.64926e-17       0.00000e+00       3.64926e-17
  80.3000000       3.65744e-17       0.00000e+00       3.65744e-17
  80.4000000       3.66515e-17       0.00000e+00       3.66515e-17
  80.5000000       3.67286e-17       0.00000e+00       3.67286e-17
  80.6000000       3.68057e-17       0.00000e+00       3.68057e-17
  80.7000000       3.68782e-17       0.00000e+00       3.68782e-17
  80.8000000       3.68502e-17       0.00000e+00       3.68502e-17
  80.9000000       3.67808e-17       0.00000e+00       3.67808e-17
  81.0000000       3.67114e-17       0.00000e+00       3.67114e-17
  81.1000000       3.66420e-17       0.00000e+00       3.66420e-17
  81.2000000       3.65726e-17       0.00000e+00       3.65726e-17
  81.3000000       3.65014e-17       0.00000e+00       3.65014e-17
  81.4000000       3.63738e-17       0.00000e+00       3.63738e-17
  81.5000000       3.62196e-17       0.00000e+00       3.62196e-17
  81.6000000       3.60653e-17       0.00000e+00       3.60653e-17
  81.7000000       3.59111e-17       0.00000e+00       3.59111e-17
  81.8000000       3.57568e-17       0.00000e+00       3.57568e-17
  81.9000000       3.55712e-17       0.00000e+00       3.55712e-17
  82.0000000       3.53139e-17       0.00000e+00       3.53139e-17
  82.1000000       3.50537e-17       0.00000e+00       3.50537e-17
  82.2000000       3.47935e-17       0.00000e+00       3.47935e-17
  82.3000000       3.45333e-17       0.00000e+00       3.45333e-17
  82.4000000       3.42731e-17       1.75044e-20       3.42555e-17
  82.5000000       3.40128e-17       5.74652e-20       3.39553e-17
  82.6000000       3.37525e-17       9.75106e-20       3.36550e-17
  82.7000000       3.34923e-17       1.37556e-19       3.33547e-17
  82.8000000       3.32320e-17       1.78246e-19       3.30538e-17
  82.9000000       3.29718e-17       2.93583e-19       3.26782e-17
  83.0000000       3.27115e-17       4.59979e-19       3.22515e-17
  83.1000000       3.24513e-17       6.26374e-19       3.18249e-17
  83.2000000       3.21910e-17       7.92769e-19       3.13982e-17
  83.3000000       3.19246e-17       9.48950e-19       3.09756e-17
  83.4000000       3.15374e-17       9.05749e-19       3.06316e-17
  83.5000000       3.11036e-17       7.85558e-19       3.03180e-17
  83.6000000       3.06697e-17       6.65367e-19       3.00044e-17
  83.7000000       3.02359e-17       5.45176e-19       2.96908e-17
  83.8000000       2.98266e-17       4.47629e-19       2.93790e-17
  83.9000000       2.96114e-17       5.29366e-19       2.90821e-17
  84.0000000       2.94379e-17       6.49616e-19       2.87883e-17
  84.1000000       2.92644e-17       7.69867e-19       2.84945e-17
  84.2000000       2.90909e-17       8.90117e-19       2.82007e-17
  84.3000000       2.88861e-17       9.89299e-19       2.78968e-17
  84.4000000       2.85530e-17       1.00187e-18       2.75511e-17
  84.5000000       2.82060e-17       1.00507e-18       2.72009e-17
  84.6000000       2.78590e-17       1.00827e-18       2.68507e-17
  84.7000000       2.75120e-17       1.01147e-18       2.65005e-17
  84.8000000       2.71989e-17       1.03787e-18       2.61611e-17
  84.9000000       2.69644e-17       1.11795e-18       2.58465e-17
  85.0000000       2.67331e-17       1.20020e-18       2.55329e-17
  85.1000000       2.65018e-17       1.28245e-18       2.52193e-17
  85.2000000       2.62704e-17       1.36470e-18       2.49057e-17
  85.3000000       2.60432e-17       1.44997e-18       2.45933e-17
  85.4000000       2.58716e-17       1.57570e-18       2.42959e-17
  85.5000000       2.57174e-17       1.71412e-18       2.40032e-17
  85.6000000       2.55631e-17       1.85255e-18       2.37106e-17
  85.7000000       2.54089e-17       1.99097e-18       2.34179e-17
  85.8000000       2.52547e-17       2.12939e-18       2.31253e-17
  85.9000000       2.50699e-17       2.20842e-18       2.28615e-17
  86.0000000       2.48390e-17       2.19779e-18       2.26412e-17
  86.1000000       2.46077e-17       2.18626e-18       2.24214e-17
  86.2000000       2.43763e-17       2.17472e-18       2.22016e-17
  86.3000000       2.41450e-17       2.16319e-18       2.19818e-17
  86.4000000       2.39107e-17       2.14659e-18       2.17641e-17
  86.5000000       2.36548e-17       2.09290e-18       2.15619e-17
  86.6000000       2.33946e-17       2.03177e-18       2.13628e-17
  86.7000000       2.31343e-17       1.97063e-18       2.11637e-17
  86.8000000       2.28741e-17       1.90950e-18       2.09646e-17
  86.9000000       2.26470e-17       1.88277e-18       2.07642e-17
  87.0000000       2.25476e-17       1.98866e-18       2.05589e-17
  87.1000000       2.24608e-17       2.10769e-18       2.03531e-17
  87.2000000       2.23741e-17       2.22673e-18       2.01473e-17
  87.3000000       2.22873e-17       2.34576e-18       1.99415e-17
  87.4000000       2.22485e-17       2.50783e-18       1.97407e-17
  87.5000000       2.23143e-17       2.76361e-18       1.95507e-17
  87.6000000       2.23837e-17       3.02265e-18       1.93611e-17
  87.7000000       2.24531e-17       3.28170e-18       1.91714e-17
  87.8000000       2.25225e-17       3.54074e-18       1.89818e-17
  87.9000000       2.25919e-17       3.79979e-18       1.87921e-17
  88.0000000       2.25945e-17       4.03364e-18       1.85608e-17
  88.1000000       2.24291e-17       4.20420e-18       1.82249e-17
  88.2000000       2.22556e-17       4.37171e-18       1.78838e-17
  88.3000000       2.20821e-17       4.53922e-18       1.75428e-17
  88.4000000       2.19086e-17       4.70673e-18       1.72018e-17
  88.5000000       2.17748e-17       4.94202e-18       1.68328e-17
  88.6000000       2.16973e-17       5.27324e-18       1.64240e-17
  88.7000000       2.16201e-17       5.60516e-18       1.60150e-17
  88.8000000       2.15430e-17       5.93708e-18       1.56060e-17
  88.9000000       2.14659e-17       6.26900e-18       1.51969e-17
  89.0000000       2.14050e-17       6.56645e-18       1.48385e-17
  89.1000000       2.14538e-17       6.63017e-18       1.48236e-17
  89.2000000       2.15232e-17       6.65007e-18       1.48731e-17
  89.3000000       2.15926e-17       6.66997e-18       1.49226e-17
  89.4000000       2.16620e-17       6.68987e-18       1.49721e-17
  89.5000000       2.17314e-17       6.70977e-18       1.50216e-17
  89.6000000       2.17185e-17       6.72466e-18       1.49939e-17
  89.7000000       2.10338e-17       6.69860e-18       1.43352e-17
  89.8000000       2.02009e-17       6.66352e-18       1.35374e-17
  89.9000000       1.94825e-17       6.77721e-18       1.27053e-17
  90.0000000       1.97928e-17       8.22871e-18       1.15641e-17
  90.1000000       2.03481e-17       9.99864e-18       1.03494e-17
  90.2000000       2.08401e-17       1.16255e-17       9.21461e-18
  90.3000000       2.07039e-17       1.18301e-17       8.87384e-18
  90.4000000       2.04064e-17       1.16695e-17       8.73689e-18
  90.5000000       2.01089e-17       1.15090e-17       8.59993e-18
  90.6000000       1.98432e-17       1.13805e-17       8.46267e-18
  90.7000000       2.12264e-17       1.29171e-17       8.30934e-18
  90.8000000       2.33830e-17       1.52344e-17       8.14860e-18
  90.9000000       2.36100e-17       1.56021e-17       8.00798e-18
  91.0000000       2.32630e-17       1.53897e-17       7.87336e-18
  91.1000000       2.22168e-17       1.46292e-17       7.58766e-18
  91.2000000       2.08075e-17       1.47633e-17       6.04426e-18
  91.3000000       1.95931e-17       1.54668e-17       4.12630e-18
  91.4000000       1.91601e-17       1.66677e-17       2.49234e-18
  91.5000000       1.98439e-17       1.85745e-17       1.26937e-18
  91.6000000       2.03339e-17       1.96508e-17       6.83057e-19
  91.7000000       2.06809e-17       2.01366e-17       5.44306e-19
  91.8000000       2.18978e-17       2.14740e-17       4.23871e-19
  91.9000000       2.50797e-17       2.47135e-17       3.66170e-19
  92.0000000       2.30916e-17       2.27453e-17       3.46367e-19
